# OpenSignals Text File Format
# {"20:17:09:18:46:98": {"sensor": ["ECGBIT", "LUX"], "device name": "Board", "column": ["nSeq", "I1", "I2", "O1", "O2", "A2", "A6"], "sync interval": 2, "time": "16:37:30.427", "comments": "", "device connection": "BTH20:17:09:18:46:98", "channels": [2, 6], "keywords": "", "mode": "bitalino_rev", "digital IO": [0, 0, 1, 1], "firmware version": 1281, "device": "bitalino_rev", "position": 0, "sampling rate": "bitalino_rev", "label": ["A2", "A6"], "resolution": [4, 1, 1, 1, 1, 10, 10], "date": "2018-2-14", "special": [{}, {}]}}
# EndOfHeader
0	0	0	0	0	545	975	
1	0	0	0	0	525	976	
2	0	0	0	0	522	974	
3	0	0	0	0	517	974	
4	0	0	0	0	504	975	
5	0	0	0	0	534	976	
6	0	0	0	0	497	974	
7	0	0	0	0	541	974	
8	0	0	0	0	480	975	
9	0	0	0	0	518	976	
10	0	0	0	0	491	974	
11	0	0	0	0	518	974	
12	0	0	0	0	495	975	
13	0	0	0	0	525	976	
14	0	0	0	0	501	974	
15	0	0	0	0	536	974	
0	0	0	0	0	496	975	
1	0	0	0	0	503	976	
2	0	0	0	0	530	974	
3	0	0	0	0	455	974	
4	0	0	0	0	495	975	
5	0	0	0	0	537	976	
6	0	0	0	0	478	974	
7	0	0	0	0	503	974	
8	0	0	0	0	477	975	
9	0	0	0	0	481	976	
10	0	0	0	0	474	974	
11	0	0	0	0	510	974	
12	0	0	0	0	532	975	
13	0	0	0	0	488	976	
14	0	0	0	0	499	974	
15	0	0	0	0	526	974	
0	0	0	0	0	473	975	
1	0	0	0	0	509	976	
2	0	0	0	0	477	974	
3	0	0	0	0	525	974	
4	0	0	0	0	473	975	
5	0	0	0	0	423	976	
6	0	0	0	0	526	974	
7	0	0	0	0	604	974	
8	0	0	0	0	530	975	
9	0	0	0	0	466	976	
10	0	0	0	0	542	974	
11	0	0	0	0	496	974	
12	0	0	0	0	482	975	
13	0	0	0	0	458	976	
14	0	0	0	0	482	974	
15	0	0	0	0	502	974	
0	0	0	0	0	499	975	
1	0	0	0	0	472	976	
2	0	0	0	0	470	974	
3	0	0	0	0	476	974	
4	0	0	0	0	452	975	
5	0	0	0	0	495	976	
6	0	0	0	0	449	974	
7	0	0	0	0	437	974	
8	0	0	0	0	463	975	
9	0	0	0	0	434	976	
10	0	0	0	0	481	974	
11	0	0	0	0	428	974	
12	0	0	0	0	459	975	
13	0	0	0	0	510	976	
14	0	0	0	0	500	974	
15	0	0	0	0	546	974	
0	0	0	0	0	536	975	
1	0	0	0	0	609	976	
2	0	0	0	0	578	974	
3	0	0	0	0	602	974	
4	0	0	0	0	541	975	
5	0	0	0	0	552	976	
6	0	0	0	0	557	974	
7	0	0	0	0	566	974	
8	0	0	0	0	573	975	
9	0	0	0	0	532	976	
10	0	0	0	0	557	974	
11	0	0	0	0	541	974	
12	0	0	0	0	515	975	
13	0	0	0	0	528	976	
14	0	0	0	0	525	974	
15	0	0	0	0	528	974	
0	0	0	0	0	541	975	
1	0	0	0	0	494	976	
2	0	0	0	0	513	974	
3	0	0	0	0	519	974	
4	0	0	0	0	528	975	
5	0	0	0	0	484	976	
6	0	0	0	0	519	974	
7	0	0	0	0	511	974	
8	0	0	0	0	526	975	
9	0	0	0	0	485	976	
10	0	0	0	0	506	974	
11	0	0	0	0	545	974	
12	0	0	0	0	515	975	
13	0	0	0	0	516	976	
14	0	0	0	0	508	974	
15	0	0	0	0	505	974	
0	0	0	0	0	506	975	
1	0	0	0	0	492	976	
2	0	0	0	0	527	974	
3	0	0	0	0	541	974	
4	0	0	0	0	523	975	
5	0	0	0	0	501	976	
6	0	0	0	0	537	974	
7	0	0	0	0	515	974	
8	0	0	0	0	501	975	
9	0	0	0	0	507	976	
10	0	0	0	0	498	974	
11	0	0	0	0	494	974	
12	0	0	0	0	527	975	
13	0	0	0	0	516	976	
14	0	0	0	0	506	974	
15	0	0	0	0	532	974	
0	0	0	0	0	534	975	
1	0	0	0	0	496	976	
2	0	0	0	0	509	974	
3	0	0	0	0	515	974	
4	0	0	0	0	494	975	
5	0	0	0	0	444	976	
6	0	0	0	0	397	974	
7	0	0	0	0	573	974	
8	0	0	0	0	594	975	
9	0	0	0	0	519	976	
10	0	0	0	0	532	974	
11	0	0	0	0	509	974	
12	0	0	0	0	480	975	
13	0	0	0	0	501	976	
14	0	0	0	0	528	974	
15	0	0	0	0	511	974	
0	0	0	0	0	498	975	
1	0	0	0	0	486	976	
2	0	0	0	0	495	974	
3	0	0	0	0	491	974	
4	0	0	0	0	503	975	
5	0	0	0	0	495	976	
6	0	0	0	0	483	974	
7	0	0	0	0	484	974	
8	0	0	0	0	476	975	
9	0	0	0	0	449	976	
10	0	0	0	0	432	974	
11	0	0	0	0	444	974	
12	0	0	0	0	458	975	
13	0	0	0	0	466	976	
14	0	0	0	0	527	974	
15	0	0	0	0	526	974	
0	0	0	0	0	540	975	
1	0	0	0	0	571	976	
2	0	0	0	0	614	974	
3	0	0	0	0	572	974	
4	0	0	0	0	567	975	
5	0	0	0	0	582	976	
6	0	0	0	0	577	974	
7	0	0	0	0	564	974	
8	0	0	0	0	565	975	
9	0	0	0	0	542	976	
10	0	0	0	0	543	974	
11	0	0	0	0	494	974	
12	0	0	0	0	548	975	
13	0	0	0	0	521	976	
14	0	0	0	0	569	974	
15	0	0	0	0	505	974	
0	0	0	0	0	544	975	
1	0	0	0	0	535	976	
2	0	0	0	0	515	974	
3	0	0	0	0	509	974	
4	0	0	0	0	496	975	
5	0	0	0	0	548	976	
6	0	0	0	0	515	974	
7	0	0	0	0	495	974	
8	0	0	0	0	508	975	
9	0	0	0	0	501	976	
10	0	0	0	0	519	974	
11	0	0	0	0	519	974	
12	0	0	0	0	498	975	
13	0	0	0	0	521	976	
14	0	0	0	0	495	974	
15	0	0	0	0	526	974	
0	0	0	0	0	513	975	
1	0	0	0	0	483	976	
2	0	0	0	0	509	974	
3	0	0	0	0	505	974	
4	0	0	0	0	514	975	
5	0	0	0	0	498	976	
6	0	0	0	0	526	974	
7	0	0	0	0	504	974	
8	0	0	0	0	495	975	
9	0	0	0	0	487	976	
10	0	0	0	0	502	974	
11	0	0	0	0	483	974	
12	0	0	0	0	492	975	
13	0	0	0	0	519	976	
14	0	0	0	0	447	974	
15	0	0	0	0	471	974	
0	0	0	0	0	527	975	
1	0	0	0	0	519	976	
2	0	0	0	0	515	974	
3	0	0	0	0	527	974	
4	0	0	0	0	498	975	
5	0	0	0	0	505	976	
6	0	0	0	0	475	974	
7	0	0	0	0	508	974	
8	0	0	0	0	502	975	
9	0	0	0	0	497	976	
10	0	0	0	0	419	974	
11	0	0	0	0	458	974	
12	0	0	0	0	595	975	
13	0	0	0	0	594	976	
14	0	0	0	0	509	974	
15	0	0	0	0	515	974	
0	0	0	0	0	504	975	
1	0	0	0	0	506	976	
2	0	0	0	0	488	974	
3	0	0	0	0	504	974	
4	0	0	0	0	480	975	
5	0	0	0	0	509	976	
6	0	0	0	0	512	974	
7	0	0	0	0	472	974	
8	0	0	0	0	489	975	
9	0	0	0	0	486	976	
10	0	0	0	0	464	974	
11	0	0	0	0	473	974	
12	0	0	0	0	483	975	
13	0	0	0	0	479	976	
14	0	0	0	0	455	974	
15	0	0	0	0	449	974	
0	0	0	0	0	464	975	
1	0	0	0	0	478	976	
2	0	0	0	0	472	974	
3	0	0	0	0	493	974	
4	0	0	0	0	514	975	
5	0	0	0	0	577	976	
6	0	0	0	0	589	974	
7	0	0	0	0	585	974	
8	0	0	0	0	571	975	
9	0	0	0	0	563	976	
10	0	0	0	0	596	974	
11	0	0	0	0	601	974	
12	0	0	0	0	579	975	
13	0	0	0	0	547	976	
14	0	0	0	0	539	974	
15	0	0	0	0	541	974	
0	0	0	0	0	512	975	
1	0	0	0	0	529	976	
2	0	0	0	0	539	974	
3	0	0	0	0	534	974	
4	0	0	0	0	537	975	
5	0	0	0	0	532	976	
6	0	0	0	0	516	974	
7	0	0	0	0	511	974	
8	0	0	0	0	523	975	
9	0	0	0	0	536	976	
10	0	0	0	0	512	974	
11	0	0	0	0	527	974	
12	0	0	0	0	510	975	
13	0	0	0	0	504	976	
14	0	0	0	0	507	974	
15	0	0	0	0	507	974	
0	0	0	0	0	500	975	
1	0	0	0	0	513	976	
2	0	0	0	0	512	974	
3	0	0	0	0	515	974	
4	0	0	0	0	507	975	
5	0	0	0	0	496	976	
6	0	0	0	0	474	974	
7	0	0	0	0	527	974	
8	0	0	0	0	523	975	
9	0	0	0	0	504	976	
10	0	0	0	0	504	974	
11	0	0	0	0	517	974	
12	0	0	0	0	500	975	
13	0	0	0	0	491	976	
14	0	0	0	0	495	974	
15	0	0	0	0	516	974	
0	0	0	0	0	496	975	
1	0	0	0	0	519	976	
2	0	0	0	0	510	974	
3	0	0	0	0	489	974	
4	0	0	0	0	514	975	
5	0	0	0	0	506	976	
6	0	0	0	0	488	974	
7	0	0	0	0	483	974	
8	0	0	0	0	532	975	
9	0	0	0	0	506	976	
10	0	0	0	0	494	974	
11	0	0	0	0	523	974	
12	0	0	0	0	505	975	
13	0	0	0	0	507	976	
14	0	0	0	0	529	974	
15	0	0	0	0	484	974	
0	0	0	0	0	526	975	
1	0	0	0	0	460	976	
2	0	0	0	0	384	974	
3	0	0	0	0	467	974	
4	0	0	0	0	566	975	
5	0	0	0	0	576	976	
6	0	0	0	0	495	974	
7	0	0	0	0	510	974	
8	0	0	0	0	508	975	
9	0	0	0	0	506	976	
10	0	0	0	0	513	974	
11	0	0	0	0	505	974	
12	0	0	0	0	491	975	
13	0	0	0	0	524	976	
14	0	0	0	0	485	974	
15	0	0	0	0	491	974	
0	0	0	0	0	502	975	
1	0	0	0	0	473	976	
2	0	0	0	0	487	974	
3	0	0	0	0	474	974	
4	0	0	0	0	476	975	
5	0	0	0	0	442	976	
6	0	0	0	0	473	974	
7	0	0	0	0	472	974	
8	0	0	0	0	433	975	
9	0	0	0	0	467	976	
10	0	0	0	0	488	974	
11	0	0	0	0	499	974	
12	0	0	0	0	534	975	
13	0	0	0	0	551	976	
14	0	0	0	0	564	974	
15	0	0	0	0	575	974	
0	0	0	0	0	591	975	
1	0	0	0	0	575	976	
2	0	0	0	0	557	974	
3	0	0	0	0	568	974	
4	0	0	0	0	546	975	
5	0	0	0	0	549	976	
6	0	0	0	0	534	974	
7	0	0	0	0	536	974	
8	0	0	0	0	519	975	
9	0	0	0	0	555	976	
10	0	0	0	0	534	974	
11	0	0	0	0	501	974	
12	0	0	0	0	514	975	
13	0	0	0	0	534	976	
14	0	0	0	0	543	974	
15	0	0	0	0	518	974	
0	0	0	0	0	512	975	
1	0	0	0	0	524	976	
2	0	0	0	0	537	974	
3	0	0	0	0	512	974	
4	0	0	0	0	504	975	
5	0	0	0	0	502	976	
6	0	0	0	0	494	974	
7	0	0	0	0	528	974	
8	0	0	0	0	506	975	
9	0	0	0	0	520	976	
10	0	0	0	0	480	974	
11	0	0	0	0	536	974	
12	0	0	0	0	544	975	
13	0	0	0	0	480	976	
14	0	0	0	0	508	974	
15	0	0	0	0	534	974	
0	0	0	0	0	505	975	
1	0	0	0	0	499	976	
2	0	0	0	0	494	974	
3	0	0	0	0	494	974	
4	0	0	0	0	524	975	
5	0	0	0	0	482	976	
6	0	0	0	0	499	974	
7	0	0	0	0	503	974	
8	0	0	0	0	492	975	
9	0	0	0	0	507	976	
10	0	0	0	0	487	974	
11	0	0	0	0	539	974	
12	0	0	0	0	500	975	
13	0	0	0	0	492	976	
14	0	0	0	0	471	974	
15	0	0	0	0	477	974	
0	0	0	0	0	537	975	
1	0	0	0	0	519	976	
2	0	0	0	0	512	974	
3	0	0	0	0	510	974	
4	0	0	0	0	505	975	
5	0	0	0	0	507	976	
6	0	0	0	0	479	974	
7	0	0	0	0	480	974	
8	0	0	0	0	458	975	
9	0	0	0	0	422	976	
10	0	0	0	0	572	974	
11	0	0	0	0	600	974	
12	0	0	0	0	518	975	
13	0	0	0	0	528	976	
14	0	0	0	0	521	974	
15	0	0	0	0	483	974	
0	0	0	0	0	510	975	
1	0	0	0	0	485	976	
2	0	0	0	0	473	974	
3	0	0	0	0	480	974	
4	0	0	0	0	515	975	
5	0	0	0	0	489	976	
6	0	0	0	0	507	974	
7	0	0	0	0	464	974	
8	0	0	0	0	491	975	
9	0	0	0	0	455	976	
10	0	0	0	0	476	974	
11	0	0	0	0	450	974	
12	0	0	0	0	444	975	
13	0	0	0	0	457	976	
14	0	0	0	0	435	974	
15	0	0	0	0	472	974	
0	0	0	0	0	457	975	
1	0	0	0	0	484	976	
2	0	0	0	0	526	974	
3	0	0	0	0	550	974	
4	0	0	0	0	549	975	
5	0	0	0	0	607	976	
6	0	0	0	0	564	974	
7	0	0	0	0	575	974	
8	0	0	0	0	576	975	
9	0	0	0	0	562	976	
10	0	0	0	0	580	974	
11	0	0	0	0	532	974	
12	0	0	0	0	547	975	
13	0	0	0	0	539	976	
14	0	0	0	0	535	974	
15	0	0	0	0	569	974	
0	0	0	0	0	523	975	
1	0	0	0	0	531	976	
2	0	0	0	0	513	974	
3	0	0	0	0	526	974	
4	0	0	0	0	518	975	
5	0	0	0	0	545	976	
6	0	0	0	0	500	974	
7	0	0	0	0	526	974	
8	0	0	0	0	520	975	
9	0	0	0	0	515	976	
10	0	0	0	0	503	974	
11	0	0	0	0	505	974	
12	0	0	0	0	487	975	
13	0	0	0	0	511	976	
14	0	0	0	0	511	974	
15	0	0	0	0	518	974	
0	0	0	0	0	526	975	
1	0	0	0	0	537	976	
2	0	0	0	0	527	974	
3	0	0	0	0	493	974	
4	0	0	0	0	512	975	
5	0	0	0	0	505	976	
6	0	0	0	0	511	974	
7	0	0	0	0	530	974	
8	0	0	0	0	509	975	
9	0	0	0	0	492	976	
10	0	0	0	0	534	974	
11	0	0	0	0	508	974	
12	0	0	0	0	504	975	
13	0	0	0	0	504	976	
14	0	0	0	0	525	974	
15	0	0	0	0	502	974	
0	0	0	0	0	486	975	
1	0	0	0	0	499	976	
2	0	0	0	0	509	974	
3	0	0	0	0	493	974	
4	0	0	0	0	481	975	
5	0	0	0	0	523	976	
6	0	0	0	0	505	974	
7	0	0	0	0	505	974	
8	0	0	0	0	524	975	
9	0	0	0	0	504	976	
10	0	0	0	0	497	974	
11	0	0	0	0	503	974	
12	0	0	0	0	510	975	
13	0	0	0	0	508	976	
14	0	0	0	0	484	974	
15	0	0	0	0	470	974	
0	0	0	0	0	396	975	
1	0	0	0	0	479	976	
2	0	0	0	0	586	974	
3	0	0	0	0	578	974	
4	0	0	0	0	484	975	
5	0	0	0	0	519	976	
6	0	0	0	0	527	974	
7	0	0	0	0	496	974	
8	0	0	0	0	492	975	
9	0	0	0	0	516	976	
10	0	0	0	0	471	974	
11	0	0	0	0	498	974	
12	0	0	0	0	511	975	
13	0	0	0	0	476	976	
14	0	0	0	0	491	974	
15	0	0	0	0	505	974	
0	0	0	0	0	487	975	
1	0	0	0	0	461	976	
2	0	0	0	0	471	974	
3	0	0	0	0	448	974	
4	0	0	0	0	454	975	
5	0	0	0	0	431	976	
6	0	0	0	0	465	974	
7	0	0	0	0	456	974	
8	0	0	0	0	488	975	
9	0	0	0	0	526	976	
10	0	0	0	0	544	974	
11	0	0	0	0	572	974	
12	0	0	0	0	559	975	
13	0	0	0	0	574	976	
14	0	0	0	0	561	974	
15	0	0	0	0	579	974	
0	0	0	0	0	575	975	
1	0	0	0	0	589	976	
2	0	0	0	0	576	974	
3	0	0	0	0	542	974	
4	0	0	0	0	526	975	
5	0	0	0	0	525	976	
6	0	0	0	0	527	974	
7	0	0	0	0	536	974	
8	0	0	0	0	551	975	
9	0	0	0	0	525	976	
10	0	0	0	0	502	974	
11	0	0	0	0	528	974	
12	0	0	0	0	511	975	
13	0	0	0	0	514	976	
14	0	0	0	0	524	974	
15	0	0	0	0	491	974	
0	0	0	0	0	535	975	
1	0	0	0	0	502	976	
2	0	0	0	0	522	974	
3	0	0	0	0	541	974	
4	0	0	0	0	503	975	
5	0	0	0	0	517	976	
6	0	0	0	0	504	974	
7	0	0	0	0	515	974	
8	0	0	0	0	515	975	
9	0	0	0	0	525	976	
10	0	0	0	0	500	974	
11	0	0	0	0	516	974	
12	0	0	0	0	519	975	
13	0	0	0	0	506	976	
14	0	0	0	0	495	974	
15	0	0	0	0	476	974	
0	0	0	0	0	535	975	
1	0	0	0	0	500	976	
2	0	0	0	0	503	974	
3	0	0	0	0	515	974	
4	0	0	0	0	512	975	
5	0	0	0	0	523	976	
6	0	0	0	0	494	974	
7	0	0	0	0	496	974	
8	0	0	0	0	503	975	
9	0	0	0	0	476	976	
10	0	0	0	0	462	974	
11	0	0	0	0	517	974	
12	0	0	0	0	527	975	
13	0	0	0	0	515	976	
14	0	0	0	0	514	974	
15	0	0	0	0	529	974	
0	0	0	0	0	513	975	
1	0	0	0	0	517	976	
2	0	0	0	0	520	974	
3	0	0	0	0	476	974	
4	0	0	0	0	483	975	
5	0	0	0	0	436	976	
6	0	0	0	0	403	974	
7	0	0	0	0	559	974	
8	0	0	0	0	589	975	
9	0	0	0	0	546	976	
10	0	0	0	0	513	974	
11	0	0	0	0	495	974	
12	0	0	0	0	537	975	
13	0	0	0	0	487	976	
14	0	0	0	0	500	974	
15	0	0	0	0	497	974	
0	0	0	0	0	495	975	
1	0	0	0	0	503	976	
2	0	0	0	0	498	974	
3	0	0	0	0	483	974	
4	0	0	0	0	478	975	
5	0	0	0	0	499	976	
6	0	0	0	0	470	974	
7	0	0	0	0	463	974	
8	0	0	0	0	479	975	
9	0	0	0	0	443	976	
10	0	0	0	0	435	974	
11	0	0	0	0	441	974	
12	0	0	0	0	464	975	
13	0	0	0	0	428	976	
14	0	0	0	0	487	974	
15	0	0	0	0	558	974	
0	0	0	0	0	570	975	
1	0	0	0	0	562	976	
2	0	0	0	0	593	974	
3	0	0	0	0	596	974	
4	0	0	0	0	551	975	
5	0	0	0	0	585	976	
6	0	0	0	0	586	974	
7	0	0	0	0	541	974	
8	0	0	0	0	540	975	
9	0	0	0	0	563	976	
10	0	0	0	0	558	974	
11	0	0	0	0	536	974	
12	0	0	0	0	551	975	
13	0	0	0	0	528	976	
14	0	0	0	0	537	974	
15	0	0	0	0	510	974	
0	0	0	0	0	519	975	
1	0	0	0	0	505	976	
2	0	0	0	0	511	974	
3	0	0	0	0	521	974	
4	0	0	0	0	526	975	
5	0	0	0	0	511	976	
6	0	0	0	0	539	974	
7	0	0	0	0	513	974	
8	0	0	0	0	500	975	
9	0	0	0	0	492	976	
10	0	0	0	0	490	974	
11	0	0	0	0	515	974	
12	0	0	0	0	533	975	
13	0	0	0	0	513	976	
14	0	0	0	0	488	974	
15	0	0	0	0	525	974	
0	0	0	0	0	510	975	
1	0	0	0	0	507	976	
2	0	0	0	0	485	974	
3	0	0	0	0	516	974	
4	0	0	0	0	504	975	
5	0	0	0	0	492	976	
6	0	0	0	0	510	974	
7	0	0	0	0	499	974	
8	0	0	0	0	521	975	
9	0	0	0	0	519	976	
10	0	0	0	0	524	974	
11	0	0	0	0	491	974	
12	0	0	0	0	499	975	
13	0	0	0	0	503	976	
14	0	0	0	0	504	974	
15	0	0	0	0	478	974	
0	0	0	0	0	448	975	
1	0	0	0	0	512	976	
2	0	0	0	0	527	974	
3	0	0	0	0	533	974	
4	0	0	0	0	513	975	
5	0	0	0	0	514	976	
6	0	0	0	0	529	974	
7	0	0	0	0	476	974	
8	0	0	0	0	474	975	
9	0	0	0	0	504	976	
10	0	0	0	0	448	974	
11	0	0	0	0	399	974	
12	0	0	0	0	497	975	
13	0	0	0	0	614	976	
14	0	0	0	0	556	974	
15	0	0	0	0	496	974	
0	0	0	0	0	505	975	
1	0	0	0	0	473	976	
2	0	0	0	0	511	974	
3	0	0	0	0	492	974	
4	0	0	0	0	508	975	
5	0	0	0	0	498	976	
6	0	0	0	0	508	974	
7	0	0	0	0	510	974	
8	0	0	0	0	466	975	
9	0	0	0	0	500	976	
10	0	0	0	0	469	974	
11	0	0	0	0	518	974	
12	0	0	0	0	486	975	
13	0	0	0	0	461	976	
14	0	0	0	0	466	974	
15	0	0	0	0	448	974	
0	0	0	0	0	459	975	
1	0	0	0	0	455	976	
2	0	0	0	0	455	974	
3	0	0	0	0	473	974	
4	0	0	0	0	492	975	
5	0	0	0	0	533	976	
6	0	0	0	0	584	974	
7	0	0	0	0	596	974	
8	0	0	0	0	572	975	
9	0	0	0	0	574	976	
10	0	0	0	0	575	974	
11	0	0	0	0	588	975	
12	0	0	0	0	558	975	
13	0	0	0	0	540	976	
14	0	0	0	0	568	974	
15	0	0	0	0	524	974	
0	0	0	0	0	547	975	
1	0	0	0	0	548	976	
2	0	0	0	0	527	974	
3	0	0	0	0	551	974	
4	0	0	0	0	535	975	
5	0	0	0	0	543	976	
6	0	0	0	0	509	974	
7	0	0	0	0	488	974	
8	0	0	0	0	504	975	
9	0	0	0	0	552	976	
10	0	0	0	0	476	974	
11	0	0	0	0	483	974	
12	0	0	0	0	555	975	
13	0	0	0	0	518	976	
14	0	0	0	0	499	974	
15	0	0	0	0	502	975	
0	0	0	0	0	514	975	
1	0	0	0	0	503	976	
2	0	0	0	0	496	974	
3	0	0	0	0	519	974	
4	0	0	0	0	511	975	
5	0	0	0	0	480	976	
6	0	0	0	0	490	974	
7	0	0	0	0	521	974	
8	0	0	0	0	514	975	
9	0	0	0	0	500	976	
10	0	0	0	0	496	974	
11	0	0	0	0	532	974	
12	0	0	0	0	520	975	
13	0	0	0	0	498	976	
14	0	0	0	0	476	974	
15	0	0	0	0	478	974	
0	0	0	0	0	510	975	
1	0	0	0	0	483	976	
2	0	0	0	0	503	974	
3	0	0	0	0	518	974	
4	0	0	0	0	517	975	
5	0	0	0	0	495	976	
6	0	0	0	0	498	974	
7	0	0	0	0	492	974	
8	0	0	0	0	529	975	
9	0	0	0	0	514	976	
10	0	0	0	0	501	974	
11	0	0	0	0	484	974	
12	0	0	0	0	428	975	
13	0	0	0	0	460	976	
14	0	0	0	0	523	974	
15	0	0	0	0	594	974	
0	0	0	0	0	544	975	
1	0	0	0	0	509	976	
2	0	0	0	0	513	974	
3	0	0	0	0	505	974	
4	0	0	0	0	488	975	
5	0	0	0	0	492	976	
6	0	0	0	0	495	974	
7	0	0	0	0	487	974	
8	0	0	0	0	489	975	
9	0	0	0	0	477	976	
10	0	0	0	0	525	974	
11	0	0	0	0	469	974	
12	0	0	0	0	499	975	
13	0	0	0	0	481	976	
14	0	0	0	0	459	974	
15	0	0	0	0	449	974	
0	0	0	0	0	461	975	
1	0	0	0	0	447	976	
2	0	0	0	0	422	974	
3	0	0	0	0	449	974	
4	0	0	0	0	461	975	
5	0	0	0	0	480	976	
6	0	0	0	0	512	974	
7	0	0	0	0	563	974	
8	0	0	0	0	582	975	
9	0	0	0	0	588	976	
10	0	0	0	0	580	974	
11	0	0	0	0	559	974	
12	0	0	0	0	567	975	
13	0	0	0	0	562	976	
14	0	0	0	0	526	974	
15	0	0	0	0	573	974	
0	0	0	0	0	569	975	
1	0	0	0	0	556	976	
2	0	0	0	0	524	974	
3	0	0	0	0	536	974	
4	0	0	0	0	559	975	
5	0	0	0	0	520	976	
6	0	0	0	0	548	974	
7	0	0	0	0	509	973	
8	0	0	0	0	512	975	
9	0	0	0	0	510	976	
10	0	0	0	0	511	974	
11	0	0	0	0	515	973	
12	0	0	0	0	513	975	
13	0	0	0	0	522	976	
14	0	0	0	0	524	974	
15	0	0	0	0	520	973	
0	0	0	0	0	512	975	
1	0	0	0	0	519	976	
2	0	0	0	0	515	974	
3	0	0	0	0	531	973	
4	0	0	0	0	504	975	
5	0	0	0	0	502	976	
6	0	0	0	0	507	973	
7	0	0	0	0	497	973	
8	0	0	0	0	503	975	
9	0	0	0	0	513	976	
10	0	0	0	0	512	972	
11	0	0	0	0	530	973	
12	0	0	0	0	492	973	
13	0	0	0	0	509	973	
14	0	0	0	0	506	972	
15	0	0	0	0	505	972	
0	0	0	0	0	529	973	
1	0	0	0	0	512	973	
2	0	0	0	0	519	972	
3	0	0	0	0	492	972	
4	0	0	0	0	490	973	
5	0	0	0	0	516	973	
6	0	0	0	0	497	972	
7	0	0	0	0	521	972	
8	0	0	0	0	504	973	
9	0	0	0	0	503	973	
10	0	0	0	0	524	972	
11	0	0	0	0	535	972	
12	0	0	0	0	530	973	
13	0	0	0	0	520	973	
14	0	0	0	0	480	972	
15	0	0	0	0	432	971	
0	0	0	0	0	424	973	
1	0	0	0	0	549	973	
2	0	0	0	0	590	972	
3	0	0	0	0	529	971	
4	0	0	0	0	505	973	
5	0	0	0	0	509	973	
6	0	0	0	0	510	972	
7	0	0	0	0	524	971	
8	0	0	0	0	494	973	
9	0	0	0	0	513	973	
10	0	0	0	0	503	972	
11	0	0	0	0	491	971	
12	0	0	0	0	509	973	
13	0	0	0	0	483	973	
14	0	0	0	0	483	972	
15	0	0	0	0	461	971	
0	0	0	0	0	498	973	
1	0	0	0	0	478	973	
2	0	0	0	0	442	972	
3	0	0	0	0	479	971	
4	0	0	0	0	440	973	
5	0	0	0	0	447	973	
6	0	0	0	0	469	972	
7	0	0	0	0	481	971	
8	0	0	0	0	480	973	
9	0	0	0	0	522	973	
10	0	0	0	0	528	972	
11	0	0	0	0	574	971	
12	0	0	0	0	619	973	
13	0	0	0	0	609	973	
14	0	0	0	0	579	972	
15	0	0	0	0	591	971	
0	0	0	0	0	584	973	
1	0	0	0	0	562	973	
2	0	0	0	0	534	972	
3	0	0	0	0	568	971	
4	0	0	0	0	553	973	
5	0	0	0	0	525	973	
6	0	0	0	0	563	972	
7	0	0	0	0	537	971	
8	0	0	0	0	532	973	
9	0	0	0	0	532	973	
10	0	0	0	0	527	972	
11	0	0	0	0	528	971	
12	0	0	0	0	507	973	
13	0	0	0	0	535	973	
14	0	0	0	0	534	972	
15	0	0	0	0	515	971	
0	0	0	0	0	528	973	
1	0	0	0	0	497	972	
2	0	0	0	0	518	972	
3	0	0	0	0	509	971	
4	0	0	0	0	529	973	
5	0	0	0	0	516	973	
6	0	0	0	0	522	972	
7	0	0	0	0	489	971	
8	0	0	0	0	507	973	
9	0	0	0	0	505	973	
10	0	0	0	0	522	972	
11	0	0	0	0	516	971	
12	0	0	0	0	520	973	
13	0	0	0	0	519	973	
14	0	0	0	0	477	972	
15	0	0	0	0	526	971	
0	0	0	0	0	491	973	
1	0	0	0	0	506	973	
2	0	0	0	0	509	972	
3	0	0	0	0	511	971	
4	0	0	0	0	491	973	
5	0	0	0	0	505	973	
6	0	0	0	0	504	972	
7	0	0	0	0	479	971	
8	0	0	0	0	510	973	
9	0	0	0	0	491	973	
10	0	0	0	0	544	972	
11	0	0	0	0	483	971	
12	0	0	0	0	499	973	
13	0	0	0	0	522	973	
14	0	0	0	0	512	972	
15	0	0	0	0	518	971	
0	0	0	0	0	508	973	
1	0	0	0	0	441	973	
2	0	0	0	0	387	972	
3	0	0	0	0	501	971	
4	0	0	0	0	585	973	
5	0	0	0	0	549	973	
6	0	0	0	0	506	972	
7	0	0	0	0	470	971	
8	0	0	0	0	518	973	
9	0	0	0	0	534	973	
10	0	0	0	0	511	972	
11	0	0	0	0	478	971	
12	0	0	0	0	488	973	
13	0	0	0	0	491	973	
14	0	0	0	0	469	972	
15	0	0	0	0	471	971	
0	0	0	0	0	494	973	
1	0	0	0	0	493	973	
2	0	0	0	0	473	972	
3	0	0	0	0	476	971	
4	0	0	0	0	481	973	
5	0	0	0	0	438	973	
6	0	0	0	0	457	972	
7	0	0	0	0	432	971	
8	0	0	0	0	436	973	
9	0	0	0	0	452	973	
10	0	0	0	0	484	972	
11	0	0	0	0	527	971	
12	0	0	0	0	546	973	
13	0	0	0	0	576	973	
14	0	0	0	0	571	972	
15	0	0	0	0	591	971	
0	0	0	0	0	606	973	
1	0	0	0	0	562	973	
2	0	0	0	0	565	972	
3	0	0	0	0	554	971	
4	0	0	0	0	556	973	
5	0	0	0	0	539	973	
6	0	0	0	0	540	972	
7	0	0	0	0	567	971	
8	0	0	0	0	531	973	
9	0	0	0	0	558	973	
10	0	0	0	0	520	972	
11	0	0	0	0	500	971	
12	0	0	0	0	527	973	
13	0	0	0	0	533	973	
14	0	0	0	0	486	972	
15	0	0	0	0	501	971	
0	0	0	0	0	508	973	
1	0	0	0	0	517	973	
2	0	0	0	0	524	972	
3	0	0	0	0	503	971	
4	0	0	0	0	539	973	
5	0	0	0	0	520	973	
6	0	0	0	0	507	972	
7	0	0	0	0	521	971	
8	0	0	0	0	503	973	
9	0	0	0	0	497	973	
10	0	0	0	0	519	972	
11	0	0	0	0	501	971	
12	0	0	0	0	518	973	
13	0	0	0	0	521	973	
14	0	0	0	0	528	972	
15	0	0	0	0	489	971	
0	0	0	0	0	497	973	
1	0	0	0	0	514	973	
2	0	0	0	0	508	972	
3	0	0	0	0	504	972	
4	0	0	0	0	478	973	
5	0	0	0	0	529	973	
6	0	0	0	0	513	972	
7	0	0	0	0	536	972	
8	0	0	0	0	478	973	
9	0	0	0	0	492	973	
10	0	0	0	0	496	972	
11	0	0	0	0	502	972	
12	0	0	0	0	479	973	
13	0	0	0	0	507	973	
14	0	0	0	0	532	972	
15	0	0	0	0	523	972	
0	0	0	0	0	502	973	
1	0	0	0	0	531	973	
2	0	0	0	0	500	972	
3	0	0	0	0	499	972	
4	0	0	0	0	457	973	
5	0	0	0	0	422	973	
6	0	0	0	0	445	972	
7	0	0	0	0	595	972	
8	0	0	0	0	557	973	
9	0	0	0	0	499	973	
10	0	0	0	0	520	972	
11	0	0	0	0	511	972	
12	0	0	0	0	504	973	
13	0	0	0	0	474	973	
14	0	0	0	0	487	972	
15	0	0	0	0	539	972	
0	0	0	0	0	487	973	
1	0	0	0	0	507	973	
2	0	0	0	0	498	972	
3	0	0	0	0	471	972	
4	0	0	0	0	474	973	
5	0	0	0	0	490	973	
6	0	0	0	0	451	972	
7	0	0	0	0	450	972	
8	0	0	0	0	465	973	
9	0	0	0	0	460	973	
10	0	0	0	0	464	972	
11	0	0	0	0	448	972	
12	0	0	0	0	455	973	
13	0	0	0	0	476	973	
14	0	0	0	0	511	972	
15	0	0	0	0	528	972	
0	0	0	0	0	554	973	
1	0	0	0	0	568	973	
2	0	0	0	0	608	972	
3	0	0	0	0	572	972	
4	0	0	0	0	562	973	
5	0	0	0	0	593	973	
6	0	0	0	0	568	972	
7	0	0	0	0	574	972	
8	0	0	0	0	543	973	
9	0	0	0	0	536	973	
10	0	0	0	0	523	972	
11	0	0	0	0	556	972	
12	0	0	0	0	548	973	
13	0	0	0	0	535	973	
14	0	0	0	0	522	972	
15	0	0	0	0	518	972	
0	0	0	0	0	511	973	
1	0	0	0	0	505	973	
2	0	0	0	0	515	972	
3	0	0	0	0	512	972	
4	0	0	0	0	501	973	
5	0	0	0	0	488	973	
6	0	0	0	0	537	972	
7	0	0	0	0	522	973	
8	0	0	0	0	507	973	
9	0	0	0	0	515	976	
10	0	0	0	0	516	972	
11	0	0	0	0	526	973	
12	0	0	0	0	491	974	
13	0	0	0	0	471	973	
14	0	0	0	0	529	972	
15	0	0	0	0	530	973	
0	0	0	0	0	504	974	
1	0	0	0	0	508	976	
2	0	0	0	0	546	972	
3	0	0	0	0	487	973	
4	0	0	0	0	490	974	
5	0	0	0	0	489	976	
6	0	0	0	0	534	972	
7	0	0	0	0	475	973	
8	0	0	0	0	527	975	
9	0	0	0	0	495	976	
10	0	0	0	0	496	972	
11	0	0	0	0	475	973	
12	0	0	0	0	500	975	
13	0	0	0	0	525	976	
14	0	0	0	0	515	973	
15	0	0	0	0	510	973	
0	0	0	0	0	482	975	
1	0	0	0	0	494	976	
2	0	0	0	0	514	973	
3	0	0	0	0	515	973	
4	0	0	0	0	498	975	
5	0	0	0	0	510	976	
6	0	0	0	0	428	973	
7	0	0	0	0	496	973	
8	0	0	0	0	567	975	
9	0	0	0	0	568	976	
10	0	0	0	0	541	973	
11	0	0	0	0	496	973	
12	0	0	0	0	478	975	
13	0	0	0	0	472	976	
14	0	0	0	0	500	973	
15	0	0	0	0	484	973	
0	0	0	0	0	492	975	
1	0	0	0	0	504	976	
2	0	0	0	0	483	973	
3	0	0	0	0	494	973	
4	0	0	0	0	475	975	
5	0	0	0	0	470	976	
6	0	0	0	0	490	973	
7	0	0	0	0	465	973	
8	0	0	0	0	456	975	
9	0	0	0	0	486	976	
10	0	0	0	0	415	972	
11	0	0	0	0	427	973	
12	0	0	0	0	442	974	
13	0	0	0	0	470	976	
14	0	0	0	0	468	972	
15	0	0	0	0	499	973	
0	0	0	0	0	550	973	
1	0	0	0	0	559	976	
2	0	0	0	0	562	972	
3	0	0	0	0	571	973	
4	0	0	0	0	597	975	
5	0	0	0	0	579	976	
6	0	0	0	0	588	972	
7	0	0	0	0	544	973	
8	0	0	0	0	578	974	
9	0	0	0	0	540	976	
10	0	0	0	0	572	972	
11	0	0	0	0	556	973	
12	0	0	0	0	547	973	
13	0	0	0	0	543	973	
14	0	0	0	0	525	972	
15	0	0	0	0	509	973	
0	0	0	0	0	518	973	
1	0	0	0	0	510	973	
2	0	0	0	0	540	972	
3	0	0	0	0	512	972	
4	0	0	0	0	510	973	
5	0	0	0	0	543	973	
6	0	0	0	0	516	972	
7	0	0	0	0	534	972	
8	0	0	0	0	480	973	
9	0	0	0	0	507	973	
10	0	0	0	0	523	972	
11	0	0	0	0	483	972	
12	0	0	0	0	519	973	
13	0	0	0	0	537	973	
14	0	0	0	0	508	972	
15	0	0	0	0	507	972	
0	0	0	0	0	519	973	
1	0	0	0	0	512	973	
2	0	0	0	0	502	972	
3	0	0	0	0	519	972	
4	0	0	0	0	479	973	
5	0	0	0	0	512	973	
6	0	0	0	0	517	972	
7	0	0	0	0	515	972	
8	0	0	0	0	503	973	
9	0	0	0	0	539	973	
10	0	0	0	0	485	972	
11	0	0	0	0	500	972	
12	0	0	0	0	472	973	
13	0	0	0	0	489	973	
14	0	0	0	0	501	972	
15	0	0	0	0	499	972	
0	0	0	0	0	500	973	
1	0	0	0	0	503	973	
2	0	0	0	0	527	972	
3	0	0	0	0	526	972	
4	0	0	0	0	518	973	
5	0	0	0	0	512	973	
6	0	0	0	0	487	972	
7	0	0	0	0	473	972	
8	0	0	0	0	437	973	
9	0	0	0	0	444	973	
10	0	0	0	0	600	972	
11	0	0	0	0	564	972	
12	0	0	0	0	516	973	
13	0	0	0	0	528	973	
14	0	0	0	0	503	972	
15	0	0	0	0	519	972	
0	0	0	0	0	496	973	
1	0	0	0	0	504	973	
2	0	0	0	0	484	972	
3	0	0	0	0	486	972	
4	0	0	0	0	490	973	
5	0	0	0	0	490	973	
6	0	0	0	0	529	972	
7	0	0	0	0	479	972	
8	0	0	0	0	493	973	
9	0	0	0	0	445	973	
10	0	0	0	0	473	972	
11	0	0	0	0	464	972	
12	0	0	0	0	439	973	
13	0	0	0	0	438	973	
14	0	0	0	0	465	972	
15	0	0	0	0	446	972	
0	0	0	0	0	467	973	
1	0	0	0	0	504	973	
2	0	0	0	0	552	972	
3	0	0	0	0	570	972	
4	0	0	0	0	565	973	
5	0	0	0	0	595	973	
6	0	0	0	0	606	972	
7	0	0	0	0	560	972	
8	0	0	0	0	554	973	
9	0	0	0	0	553	973	
10	0	0	0	0	543	972	
11	0	0	0	0	577	972	
12	0	0	0	0	529	973	
13	0	0	0	0	571	973	
14	0	0	0	0	530	972	
15	0	0	0	0	519	972	
0	0	0	0	0	492	973	
1	0	0	0	0	540	973	
2	0	0	0	0	529	972	
3	0	0	0	0	526	972	
4	0	0	0	0	538	973	
5	0	0	0	0	500	973	
6	0	0	0	0	516	972	
7	0	0	0	0	487	972	
8	0	0	0	0	505	973	
9	0	0	0	0	551	973	
10	0	0	0	0	501	972	
11	0	0	0	0	502	972	
12	0	0	0	0	534	973	
13	0	0	0	0	537	973	
14	0	0	0	0	490	972	
15	0	0	0	0	513	972	
0	0	0	0	0	489	973	
1	0	0	0	0	503	973	
2	0	0	0	0	486	972	
3	0	0	0	0	517	972	
4	0	0	0	0	502	973	
5	0	0	0	0	512	973	
6	0	0	0	0	518	972	
7	0	0	0	0	519	972	
8	0	0	0	0	496	973	
9	0	0	0	0	508	973	
10	0	0	0	0	512	972	
11	0	0	0	0	512	972	
12	0	0	0	0	511	973	
13	0	0	0	0	497	973	
14	0	0	0	0	508	972	
15	0	0	0	0	469	972	
0	0	0	0	0	485	973	
1	0	0	0	0	501	973	
2	0	0	0	0	526	972	
3	0	0	0	0	540	972	
4	0	0	0	0	513	973	
5	0	0	0	0	503	973	
6	0	0	0	0	497	972	
7	0	0	0	0	511	972	
8	0	0	0	0	536	973	
9	0	0	0	0	504	973	
10	0	0	0	0	458	972	
11	0	0	0	0	417	972	
12	0	0	0	0	467	973	
13	0	0	0	0	580	973	
14	0	0	0	0	546	972	
15	0	0	0	0	517	972	
0	0	0	0	0	513	973	
1	0	0	0	0	513	973	
2	0	0	0	0	512	972	
3	0	0	0	0	498	972	
4	0	0	0	0	509	973	
5	0	0	0	0	486	973	
6	0	0	0	0	485	972	
7	0	0	0	0	505	972	
8	0	0	0	0	482	973	
9	0	0	0	0	476	973	
10	0	0	0	0	489	972	
11	0	0	0	0	468	972	
12	0	0	0	0	481	973	
13	0	0	0	0	477	973	
14	0	0	0	0	460	972	
15	0	0	0	0	468	972	
0	0	0	0	0	436	973	
1	0	0	0	0	455	973	
2	0	0	0	0	432	972	
3	0	0	0	0	476	972	
4	0	0	0	0	511	973	
5	0	0	0	0	515	973	
6	0	0	0	0	569	972	
7	0	0	0	0	591	972	
8	0	0	0	0	593	973	
9	0	0	0	0	596	973	
10	0	0	0	0	562	972	
11	0	0	0	0	573	972	
12	0	0	0	0	560	973	
13	0	0	0	0	561	973	
14	0	0	0	0	548	972	
15	0	0	0	0	527	972	
0	0	0	0	0	528	973	
1	0	0	0	0	532	973	
2	0	0	0	0	554	972	
3	0	0	0	0	535	972	
4	0	0	0	0	516	973	
5	0	0	0	0	531	973	
6	0	0	0	0	534	972	
7	0	0	0	0	514	972	
8	0	0	0	0	534	973	
9	0	0	0	0	481	973	
10	0	0	0	0	512	972	
11	0	0	0	0	526	972	
12	0	0	0	0	509	973	
13	0	0	0	0	520	973	
14	0	0	0	0	507	972	
15	0	0	0	0	505	972	
0	0	0	0	0	513	973	
1	0	0	0	0	522	973	
2	0	0	0	0	511	972	
3	0	0	0	0	508	972	
4	0	0	0	0	524	973	
5	0	0	0	0	501	973	
6	0	0	0	0	503	972	
7	0	0	0	0	503	972	
8	0	0	0	0	509	973	
9	0	0	0	0	507	973	
10	0	0	0	0	533	972	
11	0	0	0	0	516	972	
12	0	0	0	0	502	973	
13	0	0	0	0	535	973	
14	0	0	0	0	494	972	
15	0	0	0	0	500	972	
0	0	0	0	0	506	973	
1	0	0	0	0	512	973	
2	0	0	0	0	496	972	
3	0	0	0	0	521	972	
4	0	0	0	0	476	973	
5	0	0	0	0	475	973	
6	0	0	0	0	518	972	
7	0	0	0	0	511	972	
8	0	0	0	0	505	973	
9	0	0	0	0	520	973	
10	0	0	0	0	503	972	
11	0	0	0	0	524	972	
12	0	0	0	0	504	973	
13	0	0	0	0	481	973	
14	0	0	0	0	495	972	
15	0	0	0	0	457	972	
0	0	0	0	0	390	973	
1	0	0	0	0	566	973	
2	0	0	0	0	583	972	
3	0	0	0	0	531	972	
4	0	0	0	0	496	973	
5	0	0	0	0	510	973	
6	0	0	0	0	522	972	
7	0	0	0	0	492	972	
8	0	0	0	0	499	973	
9	0	0	0	0	472	973	
10	0	0	0	0	489	972	
11	0	0	0	0	504	972	
12	0	0	0	0	490	973	
13	0	0	0	0	502	973	
14	0	0	0	0	512	972	
15	0	0	0	0	487	972	
0	0	0	0	0	461	973	
1	0	0	0	0	483	973	
2	0	0	0	0	458	972	
3	0	0	0	0	440	972	
4	0	0	0	0	459	973	
5	0	0	0	0	444	973	
6	0	0	0	0	443	972	
7	0	0	0	0	473	972	
8	0	0	0	0	488	973	
9	0	0	0	0	520	973	
10	0	0	0	0	570	972	
11	0	0	0	0	575	972	
12	0	0	0	0	595	973	
13	0	0	0	0	585	973	
14	0	0	0	0	568	972	
15	0	0	0	0	580	972	
0	0	0	0	0	574	973	
1	0	0	0	0	559	973	
2	0	0	0	0	575	972	
3	0	0	0	0	540	972	
4	0	0	0	0	519	973	
5	0	0	0	0	548	973	
6	0	0	0	0	531	972	
7	0	0	0	0	534	973	
8	0	0	0	0	514	974	
9	0	0	0	0	542	973	
10	0	0	0	0	548	972	
11	0	0	0	0	483	972	
12	0	0	0	0	532	973	
13	0	0	0	0	516	976	
14	0	0	0	0	496	972	
15	0	0	0	0	504	973	
0	0	0	0	0	503	973	
1	0	0	0	0	523	976	
2	0	0	0	0	534	972	
3	0	0	0	0	527	973	
4	0	0	0	0	490	975	
5	0	0	0	0	521	973	
6	0	0	0	0	515	972	
7	0	0	0	0	509	973	
8	0	0	0	0	495	973	
9	0	0	0	0	497	976	
10	0	0	0	0	513	972	
11	0	0	0	0	529	973	
12	0	0	0	0	505	974	
13	0	0	0	0	512	976	
14	0	0	0	0	514	972	
15	0	0	0	0	489	973	
0	0	0	0	0	496	974	
1	0	0	0	0	531	976	
2	0	0	0	0	509	972	
3	0	0	0	0	513	973	
4	0	0	0	0	519	975	
5	0	0	0	0	484	976	
6	0	0	0	0	502	973	
7	0	0	0	0	505	973	
8	0	0	0	0	476	975	
9	0	0	0	0	491	976	
10	0	0	0	0	508	973	
11	0	0	0	0	527	973	
12	0	0	0	0	510	975	
13	0	0	0	0	518	976	
14	0	0	0	0	487	973	
15	0	0	0	0	524	973	
0	0	0	0	0	520	975	
1	0	0	0	0	497	976	
2	0	0	0	0	457	973	
3	0	0	0	0	418	973	
4	0	0	0	0	485	975	
5	0	0	0	0	612	976	
6	0	0	0	0	576	973	
7	0	0	0	0	514	973	
8	0	0	0	0	509	975	
9	0	0	0	0	504	976	
10	0	0	0	0	520	974	
11	0	0	0	0	503	973	
12	0	0	0	0	488	975	
13	0	0	0	0	505	976	
14	0	0	0	0	473	974	
15	0	0	0	0	477	973	
0	0	0	0	0	496	975	
1	0	0	0	0	497	976	
2	0	0	0	0	482	974	
3	0	0	0	0	484	973	
4	0	0	0	0	468	975	
5	0	0	0	0	471	976	
6	0	0	0	0	439	974	
7	0	0	0	0	458	973	
8	0	0	0	0	424	975	
9	0	0	0	0	460	976	
10	0	0	0	0	446	974	
11	0	0	0	0	460	973	
12	0	0	0	0	505	975	
13	0	0	0	0	549	976	
14	0	0	0	0	566	974	
15	0	0	0	0	582	973	
0	0	0	0	0	561	975	
1	0	0	0	0	577	976	
2	0	0	0	0	571	974	
3	0	0	0	0	567	973	
4	0	0	0	0	540	975	
5	0	0	0	0	546	976	
6	0	0	0	0	536	974	
7	0	0	0	0	554	973	
8	0	0	0	0	547	975	
9	0	0	0	0	539	976	
10	0	0	0	0	532	974	
11	0	0	0	0	523	973	
12	0	0	0	0	521	975	
13	0	0	0	0	511	976	
14	0	0	0	0	507	973	
15	0	0	0	0	534	973	
0	0	0	0	0	501	975	
1	0	0	0	0	521	976	
2	0	0	0	0	519	974	
3	0	0	0	0	507	973	
4	0	0	0	0	498	975	
5	0	0	0	0	511	976	
6	0	0	0	0	526	973	
7	0	0	0	0	520	973	
8	0	0	0	0	502	975	
9	0	0	0	0	527	976	
10	0	0	0	0	495	972	
11	0	0	0	0	517	973	
12	0	0	0	0	495	975	
13	0	0	0	0	508	976	
14	0	0	0	0	528	972	
15	0	0	0	0	498	973	
0	0	0	0	0	516	975	
1	0	0	0	0	502	976	
2	0	0	0	0	504	973	
3	0	0	0	0	504	973	
4	0	0	0	0	500	973	
5	0	0	0	0	497	976	
6	0	0	0	0	515	973	
7	0	0	0	0	511	972	
8	0	0	0	0	499	975	
9	0	0	0	0	509	976	
10	0	0	0	0	519	972	
11	0	0	0	0	497	973	
12	0	0	0	0	473	973	
13	0	0	0	0	507	973	
14	0	0	0	0	523	972	
15	0	0	0	0	508	972	
0	0	0	0	0	515	973	
1	0	0	0	0	517	973	
2	0	0	0	0	509	972	
3	0	0	0	0	511	972	
4	0	0	0	0	510	975	
5	0	0	0	0	497	976	
6	0	0	0	0	480	972	
7	0	0	0	0	436	972	
8	0	0	0	0	424	973	
9	0	0	0	0	589	976	
10	0	0	0	0	556	972	
11	0	0	0	0	506	972	
12	0	0	0	0	515	973	
13	0	0	0	0	508	973	
14	0	0	0	0	495	972	
15	0	0	0	0	495	972	
0	0	0	0	0	500	973	
1	0	0	0	0	519	976	
2	0	0	0	0	489	972	
3	0	0	0	0	496	973	
4	0	0	0	0	488	973	
5	0	0	0	0	476	973	
6	0	0	0	0	508	972	
7	0	0	0	0	491	973	
8	0	0	0	0	462	973	
9	0	0	0	0	492	973	
10	0	0	0	0	455	972	
11	0	0	0	0	447	972	
12	0	0	0	0	439	973	
13	0	0	0	0	442	973	
14	0	0	0	0	460	972	
15	0	0	0	0	467	972	
0	0	0	0	0	506	973	
1	0	0	0	0	507	973	
2	0	0	0	0	583	972	
3	0	0	0	0	557	972	
4	0	0	0	0	571	973	
5	0	0	0	0	589	973	
6	0	0	0	0	566	972	
7	0	0	0	0	556	972	
8	0	0	0	0	583	973	
9	0	0	0	0	577	973	
10	0	0	0	0	561	972	
11	0	0	0	0	536	972	
12	0	0	0	0	537	973	
13	0	0	0	0	540	973	
14	0	0	0	0	533	972	
15	0	0	0	0	543	972	
0	0	0	0	0	496	973	
1	0	0	0	0	537	973	
2	0	0	0	0	551	972	
3	0	0	0	0	511	972	
4	0	0	0	0	543	973	
5	0	0	0	0	492	973	
6	0	0	0	0	515	972	
7	0	0	0	0	511	972	
8	0	0	0	0	506	973	
9	0	0	0	0	532	973	
10	0	0	0	0	511	972	
11	0	0	0	0	507	972	
12	0	0	0	0	532	973	
13	0	0	0	0	506	973	
14	0	0	0	0	489	972	
15	0	0	0	0	523	972	
0	0	0	0	0	499	973	
1	0	0	0	0	509	973	
2	0	0	0	0	507	972	
3	0	0	0	0	511	972	
4	0	0	0	0	509	973	
5	0	0	0	0	515	973	
6	0	0	0	0	514	972	
7	0	0	0	0	515	972	
8	0	0	0	0	507	973	
9	0	0	0	0	502	973	
10	0	0	0	0	527	972	
11	0	0	0	0	504	972	
12	0	0	0	0	501	973	
13	0	0	0	0	497	973	
14	0	0	0	0	515	972	
15	0	0	0	0	501	972	
0	0	0	0	0	500	973	
1	0	0	0	0	498	973	
2	0	0	0	0	527	972	
3	0	0	0	0	511	972	
4	0	0	0	0	482	973	
5	0	0	0	0	508	973	
6	0	0	0	0	507	972	
7	0	0	0	0	485	972	
8	0	0	0	0	532	973	
9	0	0	0	0	518	973	
10	0	0	0	0	495	972	
11	0	0	0	0	519	972	
12	0	0	0	0	500	973	
13	0	0	0	0	504	973	
14	0	0	0	0	519	972	
15	0	0	0	0	447	972	
0	0	0	0	0	410	973	
1	0	0	0	0	493	973	
2	0	0	0	0	604	972	
3	0	0	0	0	563	972	
4	0	0	0	0	512	973	
5	0	0	0	0	505	973	
6	0	0	0	0	509	972	
7	0	0	0	0	493	972	
8	0	0	0	0	507	973	
9	0	0	0	0	478	973	
10	0	0	0	0	540	972	
11	0	0	0	0	468	972	
12	0	0	0	0	497	973	
13	0	0	0	0	510	973	
14	0	0	0	0	471	972	
15	0	0	0	0	480	972	
0	0	0	0	0	471	973	
1	0	0	0	0	473	973	
2	0	0	0	0	463	972	
3	0	0	0	0	455	972	
4	0	0	0	0	460	973	
5	0	0	0	0	444	973	
6	0	0	0	0	446	972	
7	0	0	0	0	455	972	
8	0	0	0	0	474	973	
9	0	0	0	0	537	973	
10	0	0	0	0	531	972	
11	0	0	0	0	571	972	
12	0	0	0	0	586	973	
13	0	0	0	0	583	973	
14	0	0	0	0	596	972	
15	0	0	0	0	539	972	
0	0	0	0	0	582	973	
1	0	0	0	0	579	973	
2	0	0	0	0	528	972	
3	0	0	0	0	577	972	
4	0	0	0	0	546	973	
5	0	0	0	0	553	973	
6	0	0	0	0	553	972	
7	0	0	0	0	526	972	
8	0	0	0	0	534	973	
9	0	0	0	0	512	973	
10	0	0	0	0	519	972	
11	0	0	0	0	519	972	
12	0	0	0	0	514	973	
13	0	0	0	0	521	973	
14	0	0	0	0	529	972	
15	0	0	0	0	505	972	
0	0	0	0	0	528	973	
1	0	0	0	0	507	973	
2	0	0	0	0	511	972	
3	0	0	0	0	531	972	
4	0	0	0	0	486	973	
5	0	0	0	0	520	973	
6	0	0	0	0	505	972	
7	0	0	0	0	507	972	
8	0	0	0	0	505	973	
9	0	0	0	0	513	973	
10	0	0	0	0	524	972	
11	0	0	0	0	505	972	
12	0	0	0	0	525	973	
13	0	0	0	0	507	973	
14	0	0	0	0	493	972	
15	0	0	0	0	515	972	
0	0	0	0	0	510	973	
1	0	0	0	0	502	973	
2	0	0	0	0	492	972	
3	0	0	0	0	516	972	
4	0	0	0	0	519	973	
5	0	0	0	0	498	973	
6	0	0	0	0	498	972	
7	0	0	0	0	502	972	
8	0	0	0	0	513	973	
9	0	0	0	0	510	973	
10	0	0	0	0	490	972	
11	0	0	0	0	510	972	
12	0	0	0	0	476	973	
13	0	0	0	0	496	973	
14	0	0	0	0	505	972	
15	0	0	0	0	496	972	
0	0	0	0	0	516	973	
1	0	0	0	0	538	973	
2	0	0	0	0	493	972	
3	0	0	0	0	518	972	
4	0	0	0	0	531	973	
5	0	0	0	0	512	973	
6	0	0	0	0	518	972	
7	0	0	0	0	483	972	
8	0	0	0	0	447	973	
9	0	0	0	0	413	973	
10	0	0	0	0	462	972	
11	0	0	0	0	599	972	
12	0	0	0	0	575	973	
13	0	0	0	0	530	973	
14	0	0	0	0	506	972	
15	0	0	0	0	508	972	
0	0	0	0	0	505	973	
1	0	0	0	0	489	973	
2	0	0	0	0	504	972	
3	0	0	0	0	499	972	
4	0	0	0	0	504	973	
5	0	0	0	0	494	973	
6	0	0	0	0	480	972	
7	0	0	0	0	504	972	
8	0	0	0	0	478	973	
9	0	0	0	0	496	973	
10	0	0	0	0	456	972	
11	0	0	0	0	456	972	
12	0	0	0	0	483	973	
13	0	0	0	0	435	973	
14	0	0	0	0	438	972	
15	0	0	0	0	452	972	
0	0	0	0	0	453	973	
1	0	0	0	0	465	973	
2	0	0	0	0	516	972	
3	0	0	0	0	527	972	
4	0	0	0	0	583	973	
5	0	0	0	0	579	973	
6	0	0	0	0	572	972	
7	0	0	0	0	598	973	
8	0	0	0	0	564	973	
9	0	0	0	0	547	973	
10	0	0	0	0	586	972	
11	0	0	0	0	534	972	
12	0	0	0	0	556	973	
13	0	0	0	0	548	976	
14	0	0	0	0	563	972	
15	0	0	0	0	547	972	
0	0	0	0	0	537	973	
1	0	0	0	0	536	976	
2	0	0	0	0	516	972	
3	0	0	0	0	519	972	
4	0	0	0	0	529	973	
5	0	0	0	0	486	973	
6	0	0	0	0	521	972	
7	0	0	0	0	518	973	
8	0	0	0	0	522	973	
9	0	0	0	0	504	976	
10	0	0	0	0	507	972	
11	0	0	0	0	499	973	
12	0	0	0	0	534	974	
13	0	0	0	0	518	976	
14	0	0	0	0	525	972	
15	0	0	0	0	520	973	
0	0	0	0	0	518	974	
1	0	0	0	0	505	976	
2	0	0	0	0	507	972	
3	0	0	0	0	499	973	
4	0	0	0	0	512	975	
5	0	0	0	0	519	976	
6	0	0	0	0	520	972	
7	0	0	0	0	501	973	
8	0	0	0	0	508	974	
9	0	0	0	0	505	976	
10	0	0	0	0	515	972	
11	0	0	0	0	493	973	
12	0	0	0	0	497	974	
13	0	0	0	0	495	976	
14	0	0	0	0	509	973	
15	0	0	0	0	521	973	
0	0	0	0	0	495	975	
1	0	0	0	0	521	976	
2	0	0	0	0	487	972	
3	0	0	0	0	523	973	
4	0	0	0	0	495	975	
5	0	0	0	0	494	976	
6	0	0	0	0	479	973	
7	0	0	0	0	494	973	
8	0	0	0	0	517	975	
9	0	0	0	0	514	976	
10	0	0	0	0	507	973	
11	0	0	0	0	516	973	
12	0	0	0	0	509	975	
13	0	0	0	0	490	976	
14	0	0	0	0	521	973	
15	0	0	0	0	510	973	
0	0	0	0	0	451	975	
1	0	0	0	0	444	976	
2	0	0	0	0	490	973	
3	0	0	0	0	584	973	
4	0	0	0	0	552	975	
5	0	0	0	0	533	976	
6	0	0	0	0	502	974	
7	0	0	0	0	517	973	
8	0	0	0	0	519	975	
9	0	0	0	0	494	976	
10	0	0	0	0	500	974	
11	0	0	0	0	487	973	
12	0	0	0	0	486	975	
13	0	0	0	0	492	976	
14	0	0	0	0	465	974	
15	0	0	0	0	499	973	
0	0	0	0	0	473	975	
1	0	0	0	0	487	976	
2	0	0	0	0	468	974	
3	0	0	0	0	459	973	
4	0	0	0	0	446	975	
5	0	0	0	0	440	976	
6	0	0	0	0	457	974	
7	0	0	0	0	461	973	
8	0	0	0	0	450	975	
9	0	0	0	0	439	976	
10	0	0	0	0	476	974	
11	0	0	0	0	568	973	
12	0	0	0	0	539	975	
13	0	0	0	0	571	976	
14	0	0	0	0	568	974	
15	0	0	0	0	583	973	
0	0	0	0	0	591	975	
1	0	0	0	0	580	976	
2	0	0	0	0	556	974	
3	0	0	0	0	577	973	
4	0	0	0	0	540	975	
5	0	0	0	0	569	976	
6	0	0	0	0	534	974	
7	0	0	0	0	591	973	
8	0	0	0	0	525	975	
9	0	0	0	0	512	976	
10	0	0	0	0	530	974	
11	0	0	0	0	521	973	
12	0	0	0	0	518	975	
13	0	0	0	0	500	976	
14	0	0	0	0	525	974	
15	0	0	0	0	514	973	
0	0	0	0	0	526	975	
1	0	0	0	0	513	976	
2	0	0	0	0	514	974	
3	0	0	0	0	518	973	
4	0	0	0	0	517	975	
5	0	0	0	0	506	976	
6	0	0	0	0	502	974	
7	0	0	0	0	506	973	
8	0	0	0	0	499	975	
9	0	0	0	0	506	976	
10	0	0	0	0	526	974	
11	0	0	0	0	507	973	
12	0	0	0	0	504	975	
13	0	0	0	0	519	976	
14	0	0	0	0	512	974	
15	0	0	0	0	522	973	
0	0	0	0	0	485	975	
1	0	0	0	0	538	976	
2	0	0	0	0	481	974	
3	0	0	0	0	518	973	
4	0	0	0	0	519	975	
5	0	0	0	0	503	976	
6	0	0	0	0	502	974	
7	0	0	0	0	489	973	
8	0	0	0	0	500	975	
9	0	0	0	0	463	976	
10	0	0	0	0	502	973	
11	0	0	0	0	499	973	
12	0	0	0	0	537	975	
13	0	0	0	0	503	976	
14	0	0	0	0	512	973	
15	0	0	0	0	511	973	
0	0	0	0	0	507	975	
1	0	0	0	0	515	976	
2	0	0	0	0	495	973	
3	0	0	0	0	507	973	
4	0	0	0	0	494	975	
5	0	0	0	0	426	976	
6	0	0	0	0	439	973	
7	0	0	0	0	575	973	
8	0	0	0	0	556	975	
9	0	0	0	0	557	976	
10	0	0	0	0	500	972	
11	0	0	0	0	515	973	
12	0	0	0	0	504	975	
13	0	0	0	0	486	976	
14	0	0	0	0	487	972	
15	0	0	0	0	500	973	
0	0	0	0	0	503	975	
1	0	0	0	0	494	976	
2	0	0	0	0	501	973	
3	0	0	0	0	482	973	
4	0	0	0	0	486	975	
5	0	0	0	0	455	976	
6	0	0	0	0	480	973	
7	0	0	0	0	452	973	
8	0	0	0	0	466	975	
9	0	0	0	0	444	976	
10	0	0	0	0	443	972	
11	0	0	0	0	464	973	
12	0	0	0	0	463	975	
13	0	0	0	0	458	976	
14	0	0	0	0	483	972	
15	0	0	0	0	535	973	
0	0	0	0	0	561	975	
1	0	0	0	0	569	976	
2	0	0	0	0	598	973	
3	0	0	0	0	570	973	
4	0	0	0	0	587	975	
5	0	0	0	0	577	976	
6	0	0	0	0	566	972	
7	0	0	0	0	563	973	
8	0	0	0	0	551	975	
9	0	0	0	0	559	976	
10	0	0	0	0	543	973	
11	0	0	0	0	545	973	
12	0	0	0	0	512	975	
13	0	0	0	0	541	976	
14	0	0	0	0	512	972	
15	0	0	0	0	514	973	
0	0	0	0	0	518	975	
1	0	0	0	0	509	976	
2	0	0	0	0	508	972	
3	0	0	0	0	528	973	
4	0	0	0	0	524	974	
5	0	0	0	0	527	976	
6	0	0	0	0	525	972	
7	0	0	0	0	518	973	
8	0	0	0	0	508	974	
9	0	0	0	0	526	976	
10	0	0	0	0	489	972	
11	0	0	0	0	508	973	
12	0	0	0	0	515	975	
13	0	0	0	0	508	976	
14	0	0	0	0	508	972	
15	0	0	0	0	505	973	
0	0	0	0	0	525	974	
1	0	0	0	0	506	976	
2	0	0	0	0	504	972	
3	0	0	0	0	503	973	
4	0	0	0	0	504	974	
5	0	0	0	0	516	976	
6	0	0	0	0	513	972	
7	0	0	0	0	508	972	
8	0	0	0	0	510	973	
9	0	0	0	0	516	976	
10	0	0	0	0	491	972	
11	0	0	0	0	508	973	
12	0	0	0	0	518	974	
13	0	0	0	0	519	976	
14	0	0	0	0	486	972	
15	0	0	0	0	492	973	
0	0	0	0	0	496	974	
1	0	0	0	0	502	976	
2	0	0	0	0	477	972	
3	0	0	0	0	520	973	
4	0	0	0	0	506	974	
5	0	0	0	0	528	976	
6	0	0	0	0	522	972	
7	0	0	0	0	515	973	
8	0	0	0	0	504	975	
9	0	0	0	0	518	976	
10	0	0	0	0	503	972	
11	0	0	0	0	497	973	
12	0	0	0	0	431	974	
13	0	0	0	0	404	976	
14	0	0	0	0	543	972	
15	0	0	0	0	601	973	
0	0	0	0	0	546	975	
1	0	0	0	0	533	976	
2	0	0	0	0	487	972	
3	0	0	0	0	507	973	
4	0	0	0	0	487	975	
5	0	0	0	0	480	976	
6	0	0	0	0	507	972	
7	0	0	0	0	523	973	
8	0	0	0	0	508	974	
9	0	0	0	0	491	976	
10	0	0	0	0	502	972	
11	0	0	0	0	490	973	
12	0	0	0	0	492	975	
13	0	0	0	0	476	976	
14	0	0	0	0	463	972	
15	0	0	0	0	459	973	
0	0	0	0	0	470	974	
1	0	0	0	0	431	976	
2	0	0	0	0	458	972	
3	0	0	0	0	461	973	
4	0	0	0	0	464	973	
5	0	0	0	0	483	976	
6	0	0	0	0	527	972	
7	0	0	0	0	525	973	
8	0	0	0	0	593	975	
9	0	0	0	0	580	976	
10	0	0	0	0	564	972	
11	0	0	0	0	569	973	
12	0	0	0	0	566	975	
13	0	0	0	0	556	976	
14	0	0	0	0	572	973	
15	0	0	0	0	550	973	
0	0	0	0	0	541	975	
1	0	0	0	0	541	976	
2	0	0	0	0	546	972	
3	0	0	0	0	515	973	
4	0	0	0	0	531	975	
5	0	0	0	0	518	976	
6	0	0	0	0	516	972	
7	0	0	0	0	505	973	
8	0	0	0	0	523	975	
9	0	0	0	0	519	976	
10	0	0	0	0	488	972	
11	0	0	0	0	493	973	
12	0	0	0	0	528	975	
13	0	0	0	0	508	976	
14	0	0	0	0	522	972	
15	0	0	0	0	511	973	
0	0	0	0	0	510	975	
1	0	0	0	0	506	976	
2	0	0	0	0	517	972	
3	0	0	0	0	515	973	
4	0	0	0	0	514	975	
5	0	0	0	0	490	976	
6	0	0	0	0	545	972	
7	0	0	0	0	508	973	
8	0	0	0	0	503	974	
9	0	0	0	0	502	976	
10	0	0	0	0	507	972	
11	0	0	0	0	520	973	
12	0	0	0	0	515	975	
13	0	0	0	0	530	976	
14	0	0	0	0	499	972	
15	0	0	0	0	512	973	
0	0	0	0	0	539	975	
1	0	0	0	0	496	976	
2	0	0	0	0	524	972	
3	0	0	0	0	485	973	
4	0	0	0	0	492	975	
5	0	0	0	0	492	976	
6	0	0	0	0	513	972	
7	0	0	0	0	493	973	
8	0	0	0	0	486	975	
9	0	0	0	0	481	976	
10	0	0	0	0	508	973	
11	0	0	0	0	511	973	
12	0	0	0	0	504	975	
13	0	0	0	0	514	976	
14	0	0	0	0	522	972	
15	0	0	0	0	525	973	
0	0	0	0	0	507	975	
1	0	0	0	0	505	976	
2	0	0	0	0	504	972	
3	0	0	0	0	455	973	
4	0	0	0	0	381	974	
5	0	0	0	0	487	976	
6	0	0	0	0	585	972	
7	0	0	0	0	571	973	
8	0	0	0	0	509	974	
9	0	0	0	0	508	976	
10	0	0	0	0	500	973	
11	0	0	0	0	493	973	
12	0	0	0	0	501	975	
13	0	0	0	0	504	976	
14	0	0	0	0	493	973	
15	0	0	0	0	470	973	
0	0	0	0	0	499	975	
1	0	0	0	0	476	976	
2	0	0	0	0	494	972	
3	0	0	0	0	469	973	
4	0	0	0	0	492	974	
5	0	0	0	0	480	976	
6	0	0	0	0	477	972	
7	0	0	0	0	435	973	
8	0	0	0	0	433	975	
9	0	0	0	0	455	976	
10	0	0	0	0	457	972	
11	0	0	0	0	456	973	
12	0	0	0	0	476	975	
13	0	0	0	0	481	976	
14	0	0	0	0	554	973	
15	0	0	0	0	564	973	
0	0	0	0	0	567	975	
1	0	0	0	0	601	976	
2	0	0	0	0	574	973	
3	0	0	0	0	563	973	
4	0	0	0	0	608	975	
5	0	0	0	0	558	976	
6	0	0	0	0	561	972	
7	0	0	0	0	551	973	
8	0	0	0	0	544	975	
9	0	0	0	0	534	976	
10	0	0	0	0	541	973	
11	0	0	0	0	544	973	
12	0	0	0	0	536	975	
13	0	0	0	0	526	976	
14	0	0	0	0	531	973	
15	0	0	0	0	526	973	
0	0	0	0	0	519	975	
1	0	0	0	0	515	976	
2	0	0	0	0	534	973	
3	0	0	0	0	504	973	
4	0	0	0	0	536	975	
5	0	0	0	0	496	976	
6	0	0	0	0	509	972	
7	0	0	0	0	512	973	
8	0	0	0	0	502	974	
9	0	0	0	0	512	976	
10	0	0	0	0	530	973	
11	0	0	0	0	511	973	
12	0	0	0	0	506	975	
13	0	0	0	0	511	976	
14	0	0	0	0	510	973	
15	0	0	0	0	529	973	
0	0	0	0	0	489	975	
1	0	0	0	0	520	976	
2	0	0	0	0	533	973	
3	0	0	0	0	518	973	
4	0	0	0	0	521	975	
5	0	0	0	0	509	976	
6	0	0	0	0	503	973	
7	0	0	0	0	488	973	
8	0	0	0	0	504	975	
9	0	0	0	0	514	976	
10	0	0	0	0	501	973	
11	0	0	0	0	528	973	
12	0	0	0	0	492	975	
13	0	0	0	0	518	976	
14	0	0	0	0	481	972	
15	0	0	0	0	500	973	
0	0	0	0	0	484	975	
1	0	0	0	0	491	976	
2	0	0	0	0	482	973	
3	0	0	0	0	531	973	
4	0	0	0	0	501	975	
5	0	0	0	0	513	976	
6	0	0	0	0	519	973	
7	0	0	0	0	522	973	
8	0	0	0	0	513	975	
9	0	0	0	0	479	976	
10	0	0	0	0	494	972	
11	0	0	0	0	512	973	
12	0	0	0	0	374	975	
13	0	0	0	0	475	976	
14	0	0	0	0	586	973	
15	0	0	0	0	555	973	
0	0	0	0	0	515	975	
1	0	0	0	0	505	976	
2	0	0	0	0	519	973	
3	0	0	0	0	504	973	
4	0	0	0	0	499	975	
5	0	0	0	0	494	976	
6	0	0	0	0	500	972	
7	0	0	0	0	471	973	
8	0	0	0	0	486	975	
9	0	0	0	0	517	976	
10	0	0	0	0	484	974	
11	0	0	0	0	467	973	
12	0	0	0	0	483	975	
13	0	0	0	0	473	976	
14	0	0	0	0	451	974	
15	0	0	0	0	451	973	
0	0	0	0	0	466	975	
1	0	0	0	0	452	976	
2	0	0	0	0	433	974	
3	0	0	0	0	455	973	
4	0	0	0	0	460	975	
5	0	0	0	0	496	976	
6	0	0	0	0	540	974	
7	0	0	0	0	558	973	
8	0	0	0	0	611	975	
9	0	0	0	0	574	976	
10	0	0	0	0	566	974	
11	0	0	0	0	584	973	
12	0	0	0	0	566	975	
13	0	0	0	0	572	976	
14	0	0	0	0	591	974	
15	0	0	0	0	554	973	
0	0	0	0	0	541	975	
1	0	0	0	0	543	976	
2	0	0	0	0	537	974	
3	0	0	0	0	543	973	
4	0	0	0	0	515	975	
5	0	0	0	0	524	976	
6	0	0	0	0	527	974	
7	0	0	0	0	518	973	
8	0	0	0	0	528	975	
9	0	0	0	0	516	976	
10	0	0	0	0	537	974	
11	0	0	0	0	530	973	
12	0	0	0	0	494	975	
13	0	0	0	0	498	976	
14	0	0	0	0	519	974	
15	0	0	0	0	524	973	
0	0	0	0	0	505	975	
1	0	0	0	0	525	976	
2	0	0	0	0	493	974	
3	0	0	0	0	492	973	
4	0	0	0	0	523	975	
5	0	0	0	0	494	976	
6	0	0	0	0	505	974	
7	0	0	0	0	514	973	
8	0	0	0	0	519	975	
9	0	0	0	0	496	976	
10	0	0	0	0	508	974	
11	0	0	0	0	503	973	
12	0	0	0	0	494	975	
13	0	0	0	0	522	976	
14	0	0	0	0	510	974	
15	0	0	0	0	480	973	
0	0	0	0	0	499	975	
1	0	0	0	0	510	976	
2	0	0	0	0	508	974	
3	0	0	0	0	508	973	
4	0	0	0	0	502	975	
5	0	0	0	0	495	976	
6	0	0	0	0	483	974	
7	0	0	0	0	525	973	
8	0	0	0	0	511	975	
9	0	0	0	0	543	976	
10	0	0	0	0	502	974	
11	0	0	0	0	510	974	
12	0	0	0	0	506	975	
13	0	0	0	0	514	976	
14	0	0	0	0	509	974	
15	0	0	0	0	504	974	
0	0	0	0	0	486	975	
1	0	0	0	0	432	976	
2	0	0	0	0	462	974	
3	0	0	0	0	585	973	
4	0	0	0	0	577	975	
5	0	0	0	0	519	976	
6	0	0	0	0	511	974	
7	0	0	0	0	491	973	
8	0	0	0	0	491	975	
9	0	0	0	0	496	976	
10	0	0	0	0	491	974	
11	0	0	0	0	473	974	
12	0	0	0	0	490	975	
13	0	0	0	0	516	976	
14	0	0	0	0	496	974	
15	0	0	0	0	499	974	
0	0	0	0	0	475	975	
1	0	0	0	0	497	976	
2	0	0	0	0	471	974	
3	0	0	0	0	474	974	
4	0	0	0	0	445	975	
5	0	0	0	0	476	976	
6	0	0	0	0	451	974	
7	0	0	0	0	445	973	
8	0	0	0	0	436	975	
9	0	0	0	0	458	976	
10	0	0	0	0	492	974	
11	0	0	0	0	518	974	
12	0	0	0	0	563	975	
13	0	0	0	0	582	976	
14	0	0	0	0	613	974	
15	0	0	0	0	582	974	
0	0	0	0	0	595	975	
1	0	0	0	0	565	976	
2	0	0	0	0	571	974	
3	0	0	0	0	559	974	
4	0	0	0	0	566	975	
5	0	0	0	0	532	976	
6	0	0	0	0	540	974	
7	0	0	0	0	563	973	
8	0	0	0	0	532	975	
9	0	0	0	0	521	976	
10	0	0	0	0	528	974	
11	0	0	0	0	540	973	
12	0	0	0	0	499	975	
13	0	0	0	0	535	976	
14	0	0	0	0	499	974	
15	0	0	0	0	534	973	
0	0	0	0	0	517	975	
1	0	0	0	0	526	976	
2	0	0	0	0	518	974	
3	0	0	0	0	505	973	
4	0	0	0	0	520	975	
5	0	0	0	0	505	976	
6	0	0	0	0	505	974	
7	0	0	0	0	513	973	
8	0	0	0	0	498	975	
9	0	0	0	0	513	976	
10	0	0	0	0	510	974	
11	0	0	0	0	500	973	
12	0	0	0	0	511	975	
13	0	0	0	0	520	976	
14	0	0	0	0	509	974	
15	0	0	0	0	509	973	
0	0	0	0	0	527	975	
1	0	0	0	0	504	976	
2	0	0	0	0	517	974	
3	0	0	0	0	497	973	
4	0	0	0	0	501	975	
5	0	0	0	0	505	976	
6	0	0	0	0	511	974	
7	0	0	0	0	500	973	
8	0	0	0	0	515	975	
9	0	0	0	0	482	976	
10	0	0	0	0	480	974	
11	0	0	0	0	493	973	
12	0	0	0	0	509	975	
13	0	0	0	0	524	976	
14	0	0	0	0	516	974	
15	0	0	0	0	511	973	
0	0	0	0	0	500	975	
1	0	0	0	0	508	976	
2	0	0	0	0	534	974	
3	0	0	0	0	489	973	
4	0	0	0	0	481	975	
5	0	0	0	0	443	976	
6	0	0	0	0	411	973	
7	0	0	0	0	578	973	
8	0	0	0	0	581	975	
9	0	0	0	0	525	976	
10	0	0	0	0	487	974	
11	0	0	0	0	521	973	
12	0	0	0	0	520	975	
13	0	0	0	0	507	976	
14	0	0	0	0	473	974	
15	0	0	0	0	502	973	
0	0	0	0	0	510	975	
1	0	0	0	0	483	976	
2	0	0	0	0	511	974	
3	0	0	0	0	495	973	
4	0	0	0	0	483	975	
5	0	0	0	0	489	976	
6	0	0	0	0	471	974	
7	0	0	0	0	471	973	
8	0	0	0	0	468	975	
9	0	0	0	0	452	976	
10	0	0	0	0	445	974	
11	0	0	0	0	453	973	
12	0	0	0	0	445	975	
13	0	0	0	0	474	976	
14	0	0	0	0	495	974	
15	0	0	0	0	547	973	
0	0	0	0	0	561	975	
1	0	0	0	0	559	976	
2	0	0	0	0	590	974	
3	0	0	0	0	566	973	
4	0	0	0	0	581	975	
5	0	0	0	0	563	976	
6	0	0	0	0	588	974	
7	0	0	0	0	584	973	
8	0	0	0	0	554	975	
9	0	0	0	0	550	976	
10	0	0	0	0	570	974	
11	0	0	0	0	521	973	
12	0	0	0	0	527	975	
13	0	0	0	0	544	976	
14	0	0	0	0	530	974	
15	0	0	0	0	519	973	
0	0	0	0	0	529	975	
1	0	0	0	0	522	976	
2	0	0	0	0	511	974	
3	0	0	0	0	527	973	
4	0	0	0	0	512	975	
5	0	0	0	0	512	976	
6	0	0	0	0	504	974	
7	0	0	0	0	511	973	
8	0	0	0	0	521	975	
9	0	0	0	0	517	976	
10	0	0	0	0	517	974	
11	0	0	0	0	492	973	
12	0	0	0	0	517	975	
13	0	0	0	0	520	976	
14	0	0	0	0	497	974	
15	0	0	0	0	493	973	
0	0	0	0	0	498	975	
1	0	0	0	0	520	976	
2	0	0	0	0	500	974	
3	0	0	0	0	534	973	
4	0	0	0	0	505	975	
5	0	0	0	0	507	976	
6	0	0	0	0	511	974	
7	0	0	0	0	502	973	
8	0	0	0	0	504	975	
9	0	0	0	0	513	976	
10	0	0	0	0	508	974	
11	0	0	0	0	505	973	
12	0	0	0	0	500	975	
13	0	0	0	0	483	976	
14	0	0	0	0	504	974	
15	0	0	0	0	508	973	
0	0	0	0	0	512	975	
1	0	0	0	0	512	976	
2	0	0	0	0	510	974	
3	0	0	0	0	529	973	
4	0	0	0	0	513	975	
5	0	0	0	0	504	976	
6	0	0	0	0	500	974	
7	0	0	0	0	507	973	
8	0	0	0	0	460	975	
9	0	0	0	0	366	976	
10	0	0	0	0	496	974	
11	0	0	0	0	586	973	
12	0	0	0	0	568	975	
13	0	0	0	0	511	976	
14	0	0	0	0	502	974	
15	0	0	0	0	506	973	
0	0	0	0	0	496	975	
1	0	0	0	0	508	976	
2	0	0	0	0	512	974	
3	0	0	0	0	478	973	
4	0	0	0	0	490	975	
5	0	0	0	0	515	976	
6	0	0	0	0	488	974	
7	0	0	0	0	500	973	
8	0	0	0	0	480	975	
9	0	0	0	0	466	976	
10	0	0	0	0	479	974	
11	0	0	0	0	479	973	
12	0	0	0	0	444	975	
13	0	0	0	0	434	976	
14	0	0	0	0	460	974	
15	0	0	0	0	478	973	
0	0	0	0	0	447	975	
1	0	0	0	0	473	976	
2	0	0	0	0	513	974	
3	0	0	0	0	549	973	
4	0	0	0	0	546	975	
5	0	0	0	0	579	976	
6	0	0	0	0	605	974	
7	0	0	0	0	582	973	
8	0	0	0	0	574	975	
9	0	0	0	0	561	976	
10	0	0	0	0	575	974	
11	0	0	0	0	556	973	
12	0	0	0	0	533	975	
13	0	0	0	0	543	976	
14	0	0	0	0	535	974	
15	0	0	0	0	527	973	
0	0	0	0	0	550	975	
1	0	0	0	0	548	976	
2	0	0	0	0	529	974	
3	0	0	0	0	520	973	
4	0	0	0	0	515	975	
5	0	0	0	0	518	976	
6	0	0	0	0	546	974	
7	0	0	0	0	497	973	
8	0	0	0	0	518	975	
9	0	0	0	0	508	976	
10	0	0	0	0	506	974	
11	0	0	0	0	505	973	
12	0	0	0	0	527	975	
13	0	0	0	0	499	976	
14	0	0	0	0	502	974	
15	0	0	0	0	504	973	
0	0	0	0	0	535	975	
1	0	0	0	0	524	976	
2	0	0	0	0	494	974	
3	0	0	0	0	503	973	
4	0	0	0	0	504	975	
5	0	0	0	0	488	976	
6	0	0	0	0	523	974	
7	0	0	0	0	520	973	
8	0	0	0	0	494	975	
9	0	0	0	0	523	976	
10	0	0	0	0	521	974	
11	0	0	0	0	493	973	
12	0	0	0	0	507	975	
13	0	0	0	0	507	976	
14	0	0	0	0	507	974	
15	0	0	0	0	527	973	
0	0	0	0	0	500	975	
1	0	0	0	0	477	976	
2	0	0	0	0	484	974	
3	0	0	0	0	509	973	
4	0	0	0	0	504	975	
5	0	0	0	0	518	976	
6	0	0	0	0	510	974	
7	0	0	0	0	515	973	
8	0	0	0	0	518	975	
9	0	0	0	0	504	976	
10	0	0	0	0	498	974	
11	0	0	0	0	492	973	
12	0	0	0	0	503	975	
13	0	0	0	0	421	976	
14	0	0	0	0	469	974	
15	0	0	0	0	590	973	
0	0	0	0	0	561	975	
1	0	0	0	0	495	976	
2	0	0	0	0	516	974	
3	0	0	0	0	503	973	
4	0	0	0	0	500	975	
5	0	0	0	0	524	976	
6	0	0	0	0	510	974	
7	0	0	0	0	480	973	
8	0	0	0	0	501	975	
9	0	0	0	0	504	976	
10	0	0	0	0	484	974	
11	0	0	0	0	512	973	
12	0	0	0	0	466	975	
13	0	0	0	0	497	976	
14	0	0	0	0	455	974	
15	0	0	0	0	476	973	
0	0	0	0	0	450	975	
1	0	0	0	0	450	976	
2	0	0	0	0	434	974	
3	0	0	0	0	447	973	
4	0	0	0	0	460	975	
5	0	0	0	0	462	976	
6	0	0	0	0	523	974	
7	0	0	0	0	554	973	
8	0	0	0	0	558	975	
9	0	0	0	0	562	976	
10	0	0	0	0	600	974	
11	0	0	0	0	586	974	
12	0	0	0	0	573	975	
13	0	0	0	0	574	976	
14	0	0	0	0	569	974	
15	0	0	0	0	550	974	
0	0	0	0	0	552	975	
1	0	0	0	0	549	976	
2	0	0	0	0	553	974	
3	0	0	0	0	559	974	
4	0	0	0	0	519	975	
5	0	0	0	0	535	976	
6	0	0	0	0	527	974	
7	0	0	0	0	526	973	
8	0	0	0	0	508	975	
9	0	0	0	0	535	976	
10	0	0	0	0	536	974	
11	0	0	0	0	505	974	
12	0	0	0	0	504	975	
13	0	0	0	0	527	976	
14	0	0	0	0	507	974	
15	0	0	0	0	506	974	
0	0	0	0	0	525	975	
1	0	0	0	0	509	976	
2	0	0	0	0	528	974	
3	0	0	0	0	505	974	
4	0	0	0	0	494	975	
5	0	0	0	0	526	976	
6	0	0	0	0	496	974	
7	0	0	0	0	499	973	
8	0	0	0	0	519	975	
9	0	0	0	0	495	976	
10	0	0	0	0	514	974	
11	0	0	0	0	540	974	
12	0	0	0	0	518	975	
13	0	0	0	0	520	976	
14	0	0	0	0	504	974	
15	0	0	0	0	487	974	
0	0	0	0	0	496	975	
1	0	0	0	0	505	976	
2	0	0	0	0	510	974	
3	0	0	0	0	480	974	
4	0	0	0	0	490	975	
5	0	0	0	0	484	976	
6	0	0	0	0	534	974	
7	0	0	0	0	512	974	
8	0	0	0	0	547	975	
9	0	0	0	0	499	976	
10	0	0	0	0	519	974	
11	0	0	0	0	504	974	
12	0	0	0	0	520	975	
13	0	0	0	0	503	976	
14	0	0	0	0	488	974	
15	0	0	0	0	418	974	
0	0	0	0	0	401	975	
1	0	0	0	0	537	976	
2	0	0	0	0	592	974	
3	0	0	0	0	545	974	
4	0	0	0	0	509	975	
5	0	0	0	0	502	976	
6	0	0	0	0	504	974	
7	0	0	0	0	503	974	
8	0	0	0	0	497	975	
9	0	0	0	0	504	976	
10	0	0	0	0	490	974	
11	0	0	0	0	494	974	
12	0	0	0	0	478	975	
13	0	0	0	0	484	976	
14	0	0	0	0	497	974	
15	0	0	0	0	484	974	
0	0	0	0	0	488	975	
1	0	0	0	0	452	976	
2	0	0	0	0	451	974	
3	0	0	0	0	433	974	
4	0	0	0	0	470	975	
5	0	0	0	0	441	976	
6	0	0	0	0	447	974	
7	0	0	0	0	473	974	
8	0	0	0	0	480	975	
9	0	0	0	0	536	976	
10	0	0	0	0	552	974	
11	0	0	0	0	575	974	
12	0	0	0	0	579	975	
13	0	0	0	0	603	976	
14	0	0	0	0	595	974	
15	0	0	0	0	591	974	
0	0	0	0	0	554	975	
1	0	0	0	0	556	976	
2	0	0	0	0	555	974	
3	0	0	0	0	543	974	
4	0	0	0	0	531	975	
5	0	0	0	0	564	976	
6	0	0	0	0	522	974	
7	0	0	0	0	545	974	
8	0	0	0	0	535	975	
9	0	0	0	0	522	976	
10	0	0	0	0	508	974	
11	0	0	0	0	540	974	
12	0	0	0	0	525	975	
13	0	0	0	0	496	976	
14	0	0	0	0	510	974	
15	0	0	0	0	532	974	
0	0	0	0	0	498	975	
1	0	0	0	0	548	976	
2	0	0	0	0	527	974	
3	0	0	0	0	493	974	
4	0	0	0	0	521	975	
5	0	0	0	0	517	976	
6	0	0	0	0	518	974	
7	0	0	0	0	511	974	
8	0	0	0	0	506	975	
9	0	0	0	0	515	976	
10	0	0	0	0	494	974	
11	0	0	0	0	512	974	
12	0	0	0	0	517	975	
13	0	0	0	0	515	976	
14	0	0	0	0	520	974	
15	0	0	0	0	496	974	
0	0	0	0	0	510	975	
1	0	0	0	0	502	976	
2	0	0	0	0	477	974	
3	0	0	0	0	517	974	
4	0	0	0	0	504	975	
5	0	0	0	0	504	976	
6	0	0	0	0	491	974	
7	0	0	0	0	482	974	
8	0	0	0	0	523	975	
9	0	0	0	0	528	976	
10	0	0	0	0	498	974	
11	0	0	0	0	505	974	
12	0	0	0	0	527	975	
13	0	0	0	0	531	976	
14	0	0	0	0	493	974	
15	0	0	0	0	495	974	
0	0	0	0	0	500	975	
1	0	0	0	0	466	976	
2	0	0	0	0	390	974	
3	0	0	0	0	535	974	
4	0	0	0	0	603	975	
5	0	0	0	0	551	976	
6	0	0	0	0	496	974	
7	0	0	0	0	499	974	
8	0	0	0	0	522	975	
9	0	0	0	0	514	976	
10	0	0	0	0	494	974	
11	0	0	0	0	492	974	
12	0	0	0	0	504	975	
13	0	0	0	0	505	976	
14	0	0	0	0	491	974	
15	0	0	0	0	496	974	
0	0	0	0	0	462	975	
1	0	0	0	0	472	976	
2	0	0	0	0	477	974	
3	0	0	0	0	472	974	
4	0	0	0	0	474	975	
5	0	0	0	0	467	976	
6	0	0	0	0	443	974	
7	0	0	0	0	440	974	
8	0	0	0	0	449	975	
9	0	0	0	0	465	976	
10	0	0	0	0	513	974	
11	0	0	0	0	505	974	
12	0	0	0	0	551	975	
13	0	0	0	0	581	976	
14	0	0	0	0	573	974	
15	0	0	0	0	604	974	
0	0	0	0	0	579	975	
1	0	0	0	0	558	976	
2	0	0	0	0	568	974	
3	0	0	0	0	568	974	
4	0	0	0	0	566	975	
5	0	0	0	0	551	976	
6	0	0	0	0	552	974	
7	0	0	0	0	548	974	
8	0	0	0	0	514	975	
9	0	0	0	0	545	976	
10	0	0	0	0	520	974	
11	0	0	0	0	532	974	
12	0	0	0	0	523	975	
13	0	0	0	0	520	976	
14	0	0	0	0	509	974	
15	0	0	0	0	527	974	
0	0	0	0	0	516	975	
1	0	0	0	0	520	976	
2	0	0	0	0	521	974	
3	0	0	0	0	508	974	
4	0	0	0	0	543	975	
5	0	0	0	0	488	976	
6	0	0	0	0	528	974	
7	0	0	0	0	500	974	
8	0	0	0	0	516	975	
9	0	0	0	0	509	976	
10	0	0	0	0	510	974	
11	0	0	0	0	513	974	
12	0	0	0	0	485	975	
13	0	0	0	0	492	976	
14	0	0	0	0	529	974	
15	0	0	0	0	501	974	
0	0	0	0	0	520	975	
1	0	0	0	0	504	976	
2	0	0	0	0	511	974	
3	0	0	0	0	526	974	
4	0	0	0	0	496	975	
5	0	0	0	0	498	976	
6	0	0	0	0	505	974	
7	0	0	0	0	501	974	
8	0	0	0	0	523	975	
9	0	0	0	0	505	976	
10	0	0	0	0	507	974	
11	0	0	0	0	478	974	
12	0	0	0	0	489	975	
13	0	0	0	0	493	976	
14	0	0	0	0	491	974	
15	0	0	0	0	514	974	
0	0	0	0	0	501	975	
1	0	0	0	0	533	976	
2	0	0	0	0	504	974	
3	0	0	0	0	499	974	
4	0	0	0	0	496	975	
5	0	0	0	0	502	976	
6	0	0	0	0	501	974	
7	0	0	0	0	498	974	
8	0	0	0	0	408	975	
9	0	0	0	0	436	976	
10	0	0	0	0	598	974	
11	0	0	0	0	590	974	
12	0	0	0	0	527	975	
13	0	0	0	0	485	976	
14	0	0	0	0	495	974	
15	0	0	0	0	521	974	
0	0	0	0	0	514	975	
1	0	0	0	0	476	976	
2	0	0	0	0	506	974	
3	0	0	0	0	497	974	
4	0	0	0	0	496	975	
5	0	0	0	0	477	976	
6	0	0	0	0	484	974	
7	0	0	0	0	492	974	
8	0	0	0	0	493	975	
9	0	0	0	0	470	976	
10	0	0	0	0	480	974	
11	0	0	0	0	454	974	
12	0	0	0	0	456	975	
13	0	0	0	0	453	976	
14	0	0	0	0	423	974	
15	0	0	0	0	451	974	
0	0	0	0	0	500	975	
1	0	0	0	0	500	976	
2	0	0	0	0	524	974	
3	0	0	0	0	551	974	
4	0	0	0	0	593	975	
5	0	0	0	0	576	976	
6	0	0	0	0	592	974	
7	0	0	0	0	572	974	
8	0	0	0	0	571	975	
9	0	0	0	0	576	976	
10	0	0	0	0	557	974	
11	0	0	0	0	550	974	
12	0	0	0	0	551	975	
13	0	0	0	0	543	976	
14	0	0	0	0	556	974	
15	0	0	0	0	528	974	
0	0	0	0	0	529	975	
1	0	0	0	0	523	976	
2	0	0	0	0	519	974	
3	0	0	0	0	546	974	
4	0	0	0	0	504	975	
5	0	0	0	0	531	976	
6	0	0	0	0	513	974	
7	0	0	0	0	528	974	
8	0	0	0	0	526	975	
9	0	0	0	0	499	976	
10	0	0	0	0	521	974	
11	0	0	0	0	526	974	
12	0	0	0	0	499	975	
13	0	0	0	0	513	976	
14	0	0	0	0	492	974	
15	0	0	0	0	518	974	
0	0	0	0	0	517	975	
1	0	0	0	0	511	976	
2	0	0	0	0	508	974	
3	0	0	0	0	496	974	
4	0	0	0	0	509	975	
5	0	0	0	0	500	976	
6	0	0	0	0	489	974	
7	0	0	0	0	515	974	
8	0	0	0	0	517	975	
9	0	0	0	0	498	976	
10	0	0	0	0	499	974	
11	0	0	0	0	493	974	
12	0	0	0	0	494	975	
13	0	0	0	0	503	976	
14	0	0	0	0	499	974	
15	0	0	0	0	507	974	
0	0	0	0	0	508	975	
1	0	0	0	0	504	976	
2	0	0	0	0	521	974	
3	0	0	0	0	507	974	
4	0	0	0	0	490	975	
5	0	0	0	0	496	976	
6	0	0	0	0	496	974	
7	0	0	0	0	481	974	
8	0	0	0	0	506	975	
9	0	0	0	0	503	976	
10	0	0	0	0	523	974	
11	0	0	0	0	511	974	
12	0	0	0	0	522	975	
13	0	0	0	0	501	976	
14	0	0	0	0	509	974	
15	0	0	0	0	494	974	
0	0	0	0	0	487	975	
1	0	0	0	0	473	976	
2	0	0	0	0	394	974	
3	0	0	0	0	485	974	
4	0	0	0	0	607	975	
5	0	0	0	0	564	976	
6	0	0	0	0	483	974	
7	0	0	0	0	516	974	
8	0	0	0	0	507	975	
9	0	0	0	0	500	976	
10	0	0	0	0	499	974	
11	0	0	0	0	503	974	
12	0	0	0	0	502	975	
13	0	0	0	0	490	976	
14	0	0	0	0	496	974	
15	0	0	0	0	496	974	
0	0	0	0	0	480	975	
1	0	0	0	0	499	976	
2	0	0	0	0	473	974	
3	0	0	0	0	487	974	
4	0	0	0	0	460	975	
5	0	0	0	0	434	976	
6	0	0	0	0	463	974	
7	0	0	0	0	438	974	
8	0	0	0	0	444	975	
9	0	0	0	0	444	976	
10	0	0	0	0	491	974	
11	0	0	0	0	498	974	
12	0	0	0	0	543	975	
13	0	0	0	0	559	976	
14	0	0	0	0	561	974	
15	0	0	0	0	588	974	
0	0	0	0	0	574	975	
1	0	0	0	0	569	976	
2	0	0	0	0	584	974	
3	0	0	0	0	569	974	
4	0	0	0	0	570	975	
5	0	0	0	0	588	976	
6	0	0	0	0	527	974	
7	0	0	0	0	538	974	
8	0	0	0	0	535	975	
9	0	0	0	0	520	976	
10	0	0	0	0	546	974	
11	0	0	0	0	535	974	
12	0	0	0	0	530	975	
13	0	0	0	0	541	976	
14	0	0	0	0	514	974	
15	0	0	0	0	508	974	
0	0	0	0	0	511	975	
1	0	0	0	0	511	976	
2	0	0	0	0	487	974	
3	0	0	0	0	556	974	
4	0	0	0	0	530	975	
5	0	0	0	0	489	976	
6	0	0	0	0	507	974	
7	0	0	0	0	492	974	
8	0	0	0	0	548	975	
9	0	0	0	0	485	976	
10	0	0	0	0	523	974	
11	0	0	0	0	526	974	
12	0	0	0	0	510	975	
13	0	0	0	0	494	976	
14	0	0	0	0	510	974	
15	0	0	0	0	505	974	
0	0	0	0	0	505	975	
1	0	0	0	0	504	976	
2	0	0	0	0	499	974	
3	0	0	0	0	513	974	
4	0	0	0	0	499	975	
5	0	0	0	0	494	976	
6	0	0	0	0	504	974	
7	0	0	0	0	519	974	
8	0	0	0	0	502	975	
9	0	0	0	0	495	976	
10	0	0	0	0	495	974	
11	0	0	0	0	473	974	
12	0	0	0	0	512	975	
13	0	0	0	0	482	976	
14	0	0	0	0	499	974	
15	0	0	0	0	521	974	
0	0	0	0	0	473	975	
1	0	0	0	0	503	976	
2	0	0	0	0	507	974	
3	0	0	0	0	502	974	
4	0	0	0	0	502	975	
5	0	0	0	0	537	976	
6	0	0	0	0	496	974	
7	0	0	0	0	517	974	
8	0	0	0	0	519	975	
9	0	0	0	0	504	976	
10	0	0	0	0	497	974	
11	0	0	0	0	476	974	
12	0	0	0	0	424	975	
13	0	0	0	0	480	976	
14	0	0	0	0	607	974	
15	0	0	0	0	543	974	
0	0	0	0	0	529	975	
1	0	0	0	0	500	976	
2	0	0	0	0	493	974	
3	0	0	0	0	515	974	
4	0	0	0	0	502	975	
5	0	0	0	0	497	976	
6	0	0	0	0	481	974	
7	0	0	0	0	510	974	
8	0	0	0	0	490	975	
9	0	0	0	0	485	976	
10	0	0	0	0	493	974	
11	0	0	0	0	496	974	
12	0	0	0	0	468	975	
13	0	0	0	0	474	976	
14	0	0	0	0	460	974	
15	0	0	0	0	464	974	
0	0	0	0	0	447	975	
1	0	0	0	0	430	976	
2	0	0	0	0	441	974	
3	0	0	0	0	463	974	
4	0	0	0	0	481	975	
5	0	0	0	0	488	976	
6	0	0	0	0	515	974	
7	0	0	0	0	570	974	
8	0	0	0	0	568	975	
9	0	0	0	0	596	976	
10	0	0	0	0	596	974	
11	0	0	0	0	583	974	
12	0	0	0	0	597	975	
13	0	0	0	0	563	976	
14	0	0	0	0	581	974	
15	0	0	0	0	543	974	
0	0	0	0	0	559	975	
1	0	0	0	0	568	976	
2	0	0	0	0	531	974	
3	0	0	0	0	530	974	
4	0	0	0	0	555	975	
5	0	0	0	0	517	976	
6	0	0	0	0	520	974	
7	0	0	0	0	529	974	
8	0	0	0	0	530	975	
9	0	0	0	0	519	976	
10	0	0	0	0	496	974	
11	0	0	0	0	521	974	
12	0	0	0	0	514	975	
13	0	0	0	0	506	976	
14	0	0	0	0	518	974	
15	0	0	0	0	535	974	
0	0	0	0	0	505	975	
1	0	0	0	0	527	976	
2	0	0	0	0	525	974	
3	0	0	0	0	487	974	
4	0	0	0	0	498	975	
5	0	0	0	0	510	976	
6	0	0	0	0	517	974	
7	0	0	0	0	534	974	
8	0	0	0	0	489	975	
9	0	0	0	0	509	976	
10	0	0	0	0	496	974	
11	0	0	0	0	510	974	
12	0	0	0	0	495	975	
13	0	0	0	0	495	976	
14	0	0	0	0	534	974	
15	0	0	0	0	502	974	
0	0	0	0	0	515	975	
1	0	0	0	0	487	976	
2	0	0	0	0	533	974	
3	0	0	0	0	510	974	
4	0	0	0	0	502	975	
5	0	0	0	0	506	976	
6	0	0	0	0	518	974	
7	0	0	0	0	499	974	
8	0	0	0	0	477	975	
9	0	0	0	0	472	976	
10	0	0	0	0	480	974	
11	0	0	0	0	509	974	
12	0	0	0	0	505	975	
13	0	0	0	0	545	976	
14	0	0	0	0	508	974	
15	0	0	0	0	536	974	
0	0	0	0	0	523	975	
1	0	0	0	0	497	976	
2	0	0	0	0	472	974	
3	0	0	0	0	495	974	
4	0	0	0	0	427	975	
5	0	0	0	0	426	976	
6	0	0	0	0	555	974	
7	0	0	0	0	589	974	
8	0	0	0	0	533	975	
9	0	0	0	0	520	976	
10	0	0	0	0	497	974	
11	0	0	0	0	510	974	
12	0	0	0	0	502	975	
13	0	0	0	0	492	976	
14	0	0	0	0	483	974	
15	0	0	0	0	504	974	
0	0	0	0	0	521	975	
1	0	0	0	0	486	976	
2	0	0	0	0	484	974	
3	0	0	0	0	488	974	
4	0	0	0	0	467	975	
5	0	0	0	0	467	976	
6	0	0	0	0	485	974	
7	0	0	0	0	454	974	
8	0	0	0	0	451	975	
9	0	0	0	0	454	976	
10	0	0	0	0	457	974	
11	0	0	0	0	454	974	
12	0	0	0	0	457	975	
13	0	0	0	0	486	976	
14	0	0	0	0	508	974	
15	0	0	0	0	543	974	
0	0	0	0	0	576	975	
1	0	0	0	0	587	976	
2	0	0	0	0	598	974	
3	0	0	0	0	552	974	
4	0	0	0	0	591	975	
5	0	0	0	0	568	976	
6	0	0	0	0	569	974	
7	0	0	0	0	566	974	
8	0	0	0	0	539	975	
9	0	0	0	0	544	976	
10	0	0	0	0	530	974	
11	0	0	0	0	547	974	
12	0	0	0	0	528	975	
13	0	0	0	0	509	976	
14	0	0	0	0	539	974	
15	0	0	0	0	518	974	
0	0	0	0	0	509	975	
1	0	0	0	0	529	976	
2	0	0	0	0	512	974	
3	0	0	0	0	553	974	
4	0	0	0	0	506	975	
5	0	0	0	0	497	976	
6	0	0	0	0	487	974	
7	0	0	0	0	516	974	
8	0	0	0	0	517	975	
9	0	0	0	0	521	976	
10	0	0	0	0	513	974	
11	0	0	0	0	509	974	
12	0	0	0	0	534	975	
13	0	0	0	0	521	976	
14	0	0	0	0	497	974	
15	0	0	0	0	505	974	
0	0	0	0	0	502	975	
1	0	0	0	0	504	976	
2	0	0	0	0	496	974	
3	0	0	0	0	508	974	
4	0	0	0	0	520	975	
5	0	0	0	0	508	976	
6	0	0	0	0	502	974	
7	0	0	0	0	513	974	
8	0	0	0	0	471	975	
9	0	0	0	0	498	976	
10	0	0	0	0	530	974	
11	0	0	0	0	503	974	
12	0	0	0	0	499	975	
13	0	0	0	0	510	976	
14	0	0	0	0	532	974	
15	0	0	0	0	496	974	
0	0	0	0	0	496	975	
1	0	0	0	0	499	976	
2	0	0	0	0	533	974	
3	0	0	0	0	507	974	
4	0	0	0	0	482	975	
5	0	0	0	0	505	976	
6	0	0	0	0	520	974	
7	0	0	0	0	513	974	
8	0	0	0	0	504	975	
9	0	0	0	0	495	976	
10	0	0	0	0	522	974	
11	0	0	0	0	512	974	
12	0	0	0	0	516	975	
13	0	0	0	0	499	976	
14	0	0	0	0	451	974	
15	0	0	0	0	423	974	
0	0	0	0	0	471	975	
1	0	0	0	0	588	976	
2	0	0	0	0	552	974	
3	0	0	0	0	539	974	
4	0	0	0	0	524	975	
5	0	0	0	0	489	976	
6	0	0	0	0	511	974	
7	0	0	0	0	518	974	
8	0	0	0	0	496	975	
9	0	0	0	0	490	976	
10	0	0	0	0	525	974	
11	0	0	0	0	494	974	
12	0	0	0	0	511	975	
13	0	0	0	0	476	976	
14	0	0	0	0	487	974	
15	0	0	0	0	495	974	
0	0	0	0	0	478	975	
1	0	0	0	0	448	976	
2	0	0	0	0	451	974	
3	0	0	0	0	453	974	
4	0	0	0	0	455	975	
5	0	0	0	0	422	976	
6	0	0	0	0	475	974	
7	0	0	0	0	473	974	
8	0	0	0	0	498	975	
9	0	0	0	0	519	976	
10	0	0	0	0	579	974	
11	0	0	0	0	558	974	
12	0	0	0	0	568	975	
13	0	0	0	0	598	976	
14	0	0	0	0	573	974	
15	0	0	0	0	596	974	
0	0	0	0	0	558	975	
1	0	0	0	0	575	976	
2	0	0	0	0	554	974	
3	0	0	0	0	523	974	
4	0	0	0	0	533	975	
5	0	0	0	0	518	976	
6	0	0	0	0	548	974	
7	0	0	0	0	533	974	
8	0	0	0	0	535	975	
9	0	0	0	0	510	976	
10	0	0	0	0	532	974	
11	0	0	0	0	523	974	
12	0	0	0	0	505	975	
13	0	0	0	0	508	976	
14	0	0	0	0	541	974	
15	0	0	0	0	533	974	
0	0	0	0	0	524	975	
1	0	0	0	0	516	976	
2	0	0	0	0	521	974	
3	0	0	0	0	499	974	
4	0	0	0	0	512	975	
5	0	0	0	0	516	976	
6	0	0	0	0	507	974	
7	0	0	0	0	512	974	
8	0	0	0	0	517	975	
9	0	0	0	0	510	976	
10	0	0	0	0	534	974	
11	0	0	0	0	492	974	
12	0	0	0	0	519	975	
13	0	0	0	0	486	976	
14	0	0	0	0	507	974	
15	0	0	0	0	497	974	
0	0	0	0	0	517	975	
1	0	0	0	0	497	976	
2	0	0	0	0	535	974	
3	0	0	0	0	503	974	
4	0	0	0	0	502	975	
5	0	0	0	0	528	976	
6	0	0	0	0	489	974	
7	0	0	0	0	497	974	
8	0	0	0	0	512	975	
9	0	0	0	0	507	976	
10	0	0	0	0	501	974	
11	0	0	0	0	492	974	
12	0	0	0	0	509	975	
13	0	0	0	0	495	976	
14	0	0	0	0	479	974	
15	0	0	0	0	526	974	
0	0	0	0	0	519	975	
1	0	0	0	0	504	976	
2	0	0	0	0	512	974	
3	0	0	0	0	510	974	
4	0	0	0	0	521	975	
5	0	0	0	0	489	976	
6	0	0	0	0	511	974	
7	0	0	0	0	475	974	
8	0	0	0	0	394	975	
9	0	0	0	0	472	976	
10	0	0	0	0	583	974	
11	0	0	0	0	570	974	
12	0	0	0	0	510	975	
13	0	0	0	0	509	976	
14	0	0	0	0	509	974	
15	0	0	0	0	505	974	
0	0	0	0	0	507	975	
1	0	0	0	0	502	976	
2	0	0	0	0	492	974	
3	0	0	0	0	505	974	
4	0	0	0	0	511	975	
5	0	0	0	0	500	976	
6	0	0	0	0	495	974	
7	0	0	0	0	494	974	
8	0	0	0	0	486	975	
9	0	0	0	0	466	976	
10	0	0	0	0	498	974	
11	0	0	0	0	451	974	
12	0	0	0	0	454	975	
13	0	0	0	0	456	976	
14	0	0	0	0	440	974	
15	0	0	0	0	457	974	
0	0	0	0	0	472	975	
1	0	0	0	0	489	976	
2	0	0	0	0	526	974	
3	0	0	0	0	557	974	
4	0	0	0	0	580	975	
5	0	0	0	0	569	976	
6	0	0	0	0	583	974	
7	0	0	0	0	572	974	
8	0	0	0	0	579	975	
9	0	0	0	0	550	976	
10	0	0	0	0	545	974	
11	0	0	0	0	559	974	
12	0	0	0	0	548	975	
13	0	0	0	0	553	976	
14	0	0	0	0	550	974	
15	0	0	0	0	528	974	
0	0	0	0	0	525	975	
1	0	0	0	0	517	976	
2	0	0	0	0	529	974	
3	0	0	0	0	519	974	
4	0	0	0	0	511	975	
5	0	0	0	0	548	976	
6	0	0	0	0	531	974	
7	0	0	0	0	515	974	
8	0	0	0	0	520	975	
9	0	0	0	0	512	976	
10	0	0	0	0	513	974	
11	0	0	0	0	504	974	
12	0	0	0	0	517	975	
13	0	0	0	0	510	976	
14	0	0	0	0	513	974	
15	0	0	0	0	514	974	
0	0	0	0	0	523	975	
1	0	0	0	0	496	976	
2	0	0	0	0	505	974	
3	0	0	0	0	512	974	
4	0	0	0	0	497	975	
5	0	0	0	0	508	976	
6	0	0	0	0	529	974	
7	0	0	0	0	481	974	
8	0	0	0	0	511	975	
9	0	0	0	0	523	976	
10	0	0	0	0	486	974	
11	0	0	0	0	504	974	
12	0	0	0	0	524	975	
13	0	0	0	0	499	976	
14	0	0	0	0	512	974	
15	0	0	0	0	507	974	
0	0	0	0	0	495	975	
1	0	0	0	0	524	976	
2	0	0	0	0	480	974	
3	0	0	0	0	488	974	
4	0	0	0	0	511	975	
5	0	0	0	0	520	976	
6	0	0	0	0	499	974	
7	0	0	0	0	517	974	
8	0	0	0	0	510	975	
9	0	0	0	0	499	976	
10	0	0	0	0	517	974	
11	0	0	0	0	527	974	
12	0	0	0	0	487	975	
13	0	0	0	0	501	976	
14	0	0	0	0	396	974	
15	0	0	0	0	479	974	
0	0	0	0	0	572	975	
1	0	0	0	0	576	976	
2	0	0	0	0	513	974	
3	0	0	0	0	521	974	
4	0	0	0	0	513	975	
5	0	0	0	0	494	976	
6	0	0	0	0	498	974	
7	0	0	0	0	498	974	
8	0	0	0	0	504	975	
9	0	0	0	0	481	976	
10	0	0	0	0	495	974	
11	0	0	0	0	505	974	
12	0	0	0	0	498	975	
13	0	0	0	0	471	976	
14	0	0	0	0	495	974	
15	0	0	0	0	489	974	
0	0	0	0	0	465	975	
1	0	0	0	0	452	976	
2	0	0	0	0	459	974	
3	0	0	0	0	459	974	
4	0	0	0	0	451	975	
5	0	0	0	0	444	976	
6	0	0	0	0	467	974	
7	0	0	0	0	500	974	
8	0	0	0	0	508	975	
9	0	0	0	0	550	976	
10	0	0	0	0	563	974	
11	0	0	0	0	586	974	
12	0	0	0	0	583	975	
13	0	0	0	0	595	976	
14	0	0	0	0	577	974	
15	0	0	0	0	577	974	
0	0	0	0	0	560	975	
1	0	0	0	0	574	976	
2	0	0	0	0	535	974	
3	0	0	0	0	544	974	
4	0	0	0	0	525	975	
5	0	0	0	0	563	976	
6	0	0	0	0	529	974	
7	0	0	0	0	525	974	
8	0	0	0	0	535	975	
9	0	0	0	0	515	976	
10	0	0	0	0	514	974	
11	0	0	0	0	504	974	
12	0	0	0	0	526	975	
13	0	0	0	0	510	976	
14	0	0	0	0	527	974	
15	0	0	0	0	502	974	
0	0	0	0	0	509	975	
1	0	0	0	0	512	976	
2	0	0	0	0	526	974	
3	0	0	0	0	490	974	
4	0	0	0	0	504	975	
5	0	0	0	0	489	976	
6	0	0	0	0	550	974	
7	0	0	0	0	492	974	
8	0	0	0	0	517	975	
9	0	0	0	0	509	976	
10	0	0	0	0	515	974	
11	0	0	0	0	500	974	
12	0	0	0	0	508	975	
13	0	0	0	0	498	976	
14	0	0	0	0	515	974	
15	0	0	0	0	510	974	
0	0	0	0	0	525	975	
1	0	0	0	0	504	976	
2	0	0	0	0	501	974	
3	0	0	0	0	504	974	
4	0	0	0	0	504	975	
5	0	0	0	0	504	976	
6	0	0	0	0	487	974	
7	0	0	0	0	497	974	
8	0	0	0	0	529	975	
9	0	0	0	0	499	976	
10	0	0	0	0	518	974	
11	0	0	0	0	511	974	
12	0	0	0	0	523	975	
13	0	0	0	0	506	976	
14	0	0	0	0	508	974	
15	0	0	0	0	478	974	
0	0	0	0	0	440	975	
1	0	0	0	0	445	976	
2	0	0	0	0	518	974	
3	0	0	0	0	600	974	
4	0	0	0	0	538	975	
5	0	0	0	0	517	976	
6	0	0	0	0	502	974	
7	0	0	0	0	460	974	
8	0	0	0	0	486	975	
9	0	0	0	0	490	976	
10	0	0	0	0	489	974	
11	0	0	0	0	514	974	
12	0	0	0	0	484	975	
13	0	0	0	0	484	976	
14	0	0	0	0	496	974	
15	0	0	0	0	451	974	
0	0	0	0	0	494	975	
1	0	0	0	0	463	976	
2	0	0	0	0	486	974	
3	0	0	0	0	448	974	
4	0	0	0	0	441	975	
5	0	0	0	0	421	976	
6	0	0	0	0	445	974	
7	0	0	0	0	483	974	
8	0	0	0	0	444	975	
9	0	0	0	0	477	976	
10	0	0	0	0	501	974	
11	0	0	0	0	531	974	
12	0	0	0	0	568	975	
13	0	0	0	0	576	976	
14	0	0	0	0	591	974	
15	0	0	0	0	562	974	
0	0	0	0	0	589	975	
1	0	0	0	0	552	976	
2	0	0	0	0	543	974	
3	0	0	0	0	542	974	
4	0	0	0	0	552	975	
5	0	0	0	0	575	976	
6	0	0	0	0	566	974	
7	0	0	0	0	527	974	
8	0	0	0	0	563	975	
9	0	0	0	0	537	976	
10	0	0	0	0	520	974	
11	0	0	0	0	512	974	
12	0	0	0	0	550	975	
13	0	0	0	0	489	976	
14	0	0	0	0	518	974	
15	0	0	0	0	518	974	
0	0	0	0	0	515	975	
1	0	0	0	0	537	976	
2	0	0	0	0	487	974	
3	0	0	0	0	506	974	
4	0	0	0	0	480	975	
5	0	0	0	0	499	976	
6	0	0	0	0	515	974	
7	0	0	0	0	526	974	
8	0	0	0	0	522	975	
9	0	0	0	0	486	976	
10	0	0	0	0	511	974	
11	0	0	0	0	504	974	
12	0	0	0	0	526	975	
13	0	0	0	0	504	976	
14	0	0	0	0	502	974	
15	0	0	0	0	462	973	
0	0	0	0	0	525	975	
1	0	0	0	0	502	976	
2	0	0	0	0	520	972	
3	0	0	0	0	523	972	
4	0	0	0	0	504	973	
5	0	0	0	0	513	973	
6	0	0	0	0	494	972	
7	0	0	0	0	515	971	
8	0	0	0	0	485	973	
9	0	0	0	0	476	972	
10	0	0	0	0	489	972	
11	0	0	0	0	488	971	
12	0	0	0	0	528	971	
13	0	0	0	0	534	972	
14	0	0	0	0	494	972	
15	0	0	0	0	513	970	
0	0	0	0	0	529	971	
1	0	0	0	0	507	970	
2	0	0	0	0	527	969	
3	0	0	0	0	481	967	
4	0	0	0	0	432	969	
5	0	0	0	0	403	968	
6	0	0	0	0	473	968	
7	0	0	0	0	620	966	
8	0	0	0	0	525	967	
9	0	0	0	0	533	965	
10	0	0	0	0	520	964	
11	0	0	0	0	513	962	
12	0	0	0	0	481	963	
13	0	0	0	0	463	961	
14	0	0	0	0	481	958	
15	0	0	0	0	478	957	
0	0	0	0	0	484	955	
1	0	0	0	0	498	952	
2	0	0	0	0	475	948	
3	0	0	0	0	481	942	
4	0	0	0	0	494	937	
5	0	0	0	0	448	931	
6	0	0	0	0	487	924	
7	0	0	0	0	452	917	
8	0	0	0	0	428	911	
9	0	0	0	0	471	904	
10	0	0	0	0	411	894	
11	0	0	0	0	446	884	
12	0	0	0	0	446	875	
13	0	0	0	0	470	865	
14	0	0	0	0	467	854	
15	0	0	0	0	532	844	
0	0	0	0	0	543	837	
1	0	0	0	0	556	832	
2	0	0	0	0	580	825	
3	0	0	0	0	543	820	
4	0	0	0	0	555	817	
5	0	0	0	0	571	812	
6	0	0	0	0	547	804	
7	0	0	0	0	568	796	
8	0	0	0	0	557	789	
9	0	0	0	0	544	782	
10	0	0	0	0	544	774	
11	0	0	0	0	540	766	
12	0	0	0	0	538	761	
13	0	0	0	0	537	754	
14	0	0	0	0	534	746	
15	0	0	0	0	485	739	
0	0	0	0	0	518	734	
1	0	0	0	0	522	728	
2	0	0	0	0	484	719	
3	0	0	0	0	503	711	
4	0	0	0	0	504	707	
5	0	0	0	0	530	700	
6	0	0	0	0	527	692	
7	0	0	0	0	539	684	
8	0	0	0	0	488	679	
9	0	0	0	0	514	672	
10	0	0	0	0	508	662	
11	0	0	0	0	463	653	
12	0	0	0	0	530	647	
13	0	0	0	0	509	638	
14	0	0	0	0	519	628	
15	0	0	0	0	505	619	
0	0	0	0	0	490	615	
1	0	0	0	0	528	610	
2	0	0	0	0	480	604	
3	0	0	0	0	501	597	
4	0	0	0	0	499	593	
5	0	0	0	0	509	587	
6	0	0	0	0	524	577	
7	0	0	0	0	489	569	
8	0	0	0	0	523	564	
9	0	0	0	0	528	558	
10	0	0	0	0	484	551	
11	0	0	0	0	548	544	
12	0	0	0	0	484	540	
13	0	0	0	0	490	534	
14	0	0	0	0	537	525	
15	0	0	0	0	451	515	
0	0	0	0	0	475	510	
1	0	0	0	0	550	504	
2	0	0	0	0	515	496	
3	0	0	0	0	525	490	
4	0	0	0	0	518	488	
5	0	0	0	0	551	484	
6	0	0	0	0	560	477	
7	0	0	0	0	491	470	
8	0	0	0	0	471	465	
9	0	0	0	0	417	459	
10	0	0	0	0	423	449	
11	0	0	0	0	558	442	
12	0	0	0	0	579	439	
13	0	0	0	0	535	436	
14	0	0	0	0	533	431	
15	0	0	0	0	528	427	
0	0	0	0	0	557	426	
1	0	0	0	0	543	423	
2	0	0	0	0	510	416	
3	0	0	0	0	494	410	
4	0	0	0	0	478	408	
5	0	0	0	0	506	405	
6	0	0	0	0	507	399	
7	0	0	0	0	491	395	
8	0	0	0	0	476	394	
9	0	0	0	0	513	391	
10	0	0	0	0	508	386	
11	0	0	0	0	567	380	
12	0	0	0	0	468	378	
13	0	0	0	0	452	373	
14	0	0	0	0	465	367	
15	0	0	0	0	437	360	
0	0	0	0	0	407	360	
1	0	0	0	0	451	358	
2	0	0	0	0	506	354	
3	0	0	0	0	540	350	
4	0	0	0	0	575	351	
5	0	0	0	0	568	351	
6	0	0	0	0	601	348	
7	0	0	0	0	582	346	
8	0	0	0	0	566	348	
9	0	0	0	0	572	347	
10	0	0	0	0	538	343	
11	0	0	0	0	552	340	
12	0	0	0	0	567	342	
13	0	0	0	0	582	343	
14	0	0	0	0	540	341	
15	0	0	0	0	469	340	
0	0	0	0	0	556	342	
1	0	0	0	0	547	343	
2	0	0	0	0	500	342	
3	0	0	0	0	556	340	
4	0	0	0	0	502	343	
5	0	0	0	0	533	344	
6	0	0	0	0	530	342	
7	0	0	0	0	513	341	
8	0	0	0	0	545	344	
9	0	0	0	0	514	347	
10	0	0	0	0	455	345	
11	0	0	0	0	503	345	
12	0	0	0	0	496	348	
13	0	0	0	0	560	350	
14	0	0	0	0	545	349	
15	0	0	0	0	526	348	
0	0	0	0	0	537	351	
1	0	0	0	0	504	353	
2	0	0	0	0	504	352	
3	0	0	0	0	474	352	
4	0	0	0	0	495	356	
5	0	0	0	0	557	358	
6	0	0	0	0	494	357	
7	0	0	0	0	538	356	
8	0	0	0	0	498	359	
9	0	0	0	0	522	360	
10	0	0	0	0	485	358	
11	0	0	0	0	487	357	
12	0	0	0	0	506	360	
13	0	0	0	0	463	361	
14	0	0	0	0	454	359	
15	0	0	0	0	547	358	
0	0	0	0	0	530	360	
1	0	0	0	0	553	361	
2	0	0	0	0	518	359	
3	0	0	0	0	497	356	
4	0	0	0	0	489	358	
5	0	0	0	0	505	359	
6	0	0	0	0	487	356	
7	0	0	0	0	471	355	
8	0	0	0	0	535	356	
9	0	0	0	0	547	357	
10	0	0	0	0	542	355	
11	0	0	0	0	496	353	
12	0	0	0	0	494	354	
13	0	0	0	0	478	355	
14	0	0	0	0	422	352	
15	0	0	0	0	469	349	
0	0	0	0	0	563	350	
1	0	0	0	0	573	351	
2	0	0	0	0	517	348	
3	0	0	0	0	507	345	
4	0	0	0	0	463	346	
5	0	0	0	0	507	347	
6	0	0	0	0	501	343	
7	0	0	0	0	499	341	
8	0	0	0	0	459	342	
9	0	0	0	0	540	342	
10	0	0	0	0	455	338	
11	0	0	0	0	490	335	
12	0	0	0	0	501	336	
13	0	0	0	0	478	335	
14	0	0	0	0	484	332	
15	0	0	0	0	466	329	
0	0	0	0	0	480	332	
1	0	0	0	0	437	331	
2	0	0	0	0	449	327	
3	0	0	0	0	477	326	
4	0	0	0	0	448	328	
5	0	0	0	0	427	327	
6	0	0	0	0	454	324	
7	0	0	0	0	528	321	
8	0	0	0	0	536	322	
9	0	0	0	0	582	321	
10	0	0	0	0	606	318	
11	0	0	0	0	597	314	
12	0	0	0	0	566	316	
13	0	0	0	0	546	315	
14	0	0	0	0	557	311	
15	0	0	0	0	556	307	
0	0	0	0	0	527	308	
1	0	0	0	0	483	307	
2	0	0	0	0	586	303	
3	0	0	0	0	504	299	
4	0	0	0	0	544	300	
5	0	0	0	0	536	299	
6	0	0	0	0	537	295	
7	0	0	0	0	518	293	
8	0	0	0	0	522	295	
9	0	0	0	0	515	294	
10	0	0	0	0	496	291	
11	0	0	0	0	510	289	
12	0	0	0	0	529	292	
13	0	0	0	0	487	292	
14	0	0	0	0	537	290	
15	0	0	0	0	515	288	
0	0	0	0	0	519	291	
1	0	0	0	0	502	291	
2	0	0	0	0	506	291	
3	0	0	0	0	510	289	
4	0	0	0	0	505	292	
5	0	0	0	0	504	294	
6	0	0	0	0	530	291	
7	0	0	0	0	525	291	
8	0	0	0	0	540	294	
9	0	0	0	0	509	295	
10	0	0	0	0	460	294	
11	0	0	0	0	534	292	
12	0	0	0	0	508	296	
13	0	0	0	0	510	297	
14	0	0	0	0	450	295	
15	0	0	0	0	528	294	
0	0	0	0	0	503	296	
1	0	0	0	0	503	297	
2	0	0	0	0	523	295	
3	0	0	0	0	500	293	
4	0	0	0	0	493	296	
5	0	0	0	0	487	297	
6	0	0	0	0	508	295	
7	0	0	0	0	538	292	
8	0	0	0	0	543	295	
9	0	0	0	0	458	295	
10	0	0	0	0	472	293	
11	0	0	0	0	531	291	
12	0	0	0	0	510	293	
13	0	0	0	0	499	294	
14	0	0	0	0	438	291	
15	0	0	0	0	433	289	
0	0	0	0	0	548	292	
1	0	0	0	0	641	294	
2	0	0	0	0	519	291	
3	0	0	0	0	526	290	
4	0	0	0	0	519	292	
5	0	0	0	0	511	293	
6	0	0	0	0	467	291	
7	0	0	0	0	538	289	
8	0	0	0	0	495	292	
9	0	0	0	0	489	293	
10	0	0	0	0	513	291	
11	0	0	0	0	545	289	
12	0	0	0	0	487	292	
13	0	0	0	0	498	294	
14	0	0	0	0	518	292	
15	0	0	0	0	471	291	
0	0	0	0	0	497	293	
1	0	0	0	0	490	295	
2	0	0	0	0	451	292	
3	0	0	0	0	492	290	
4	0	0	0	0	444	293	
5	0	0	0	0	446	295	
6	0	0	0	0	459	291	
7	0	0	0	0	519	291	
8	0	0	0	0	522	294	
9	0	0	0	0	568	294	
10	0	0	0	0	611	291	
11	0	0	0	0	600	289	
12	0	0	0	0	596	292	
13	0	0	0	0	600	293	
14	0	0	0	0	585	291	
15	0	0	0	0	583	289	
0	0	0	0	0	541	292	
1	0	0	0	0	560	292	
2	0	0	0	0	583	290	
3	0	0	0	0	552	288	
4	0	0	0	0	557	290	
5	0	0	0	0	540	291	
6	0	0	0	0	564	289	
7	0	0	0	0	549	288	
8	0	0	0	0	542	289	
9	0	0	0	0	517	290	
10	0	0	0	0	530	287	
11	0	0	0	0	510	285	
12	0	0	0	0	528	287	
13	0	0	0	0	537	287	
14	0	0	0	0	572	286	
15	0	0	0	0	532	284	
0	0	0	0	0	492	286	
1	0	0	0	0	526	287	
2	0	0	0	0	491	284	
3	0	0	0	0	535	282	
4	0	0	0	0	512	284	
5	0	0	0	0	512	286	
6	0	0	0	0	531	283	
7	0	0	0	0	526	281	
8	0	0	0	0	503	284	
9	0	0	0	0	536	285	
10	0	0	0	0	513	283	
11	0	0	0	0	532	281	
12	0	0	0	0	518	284	
13	0	0	0	0	534	285	
14	0	0	0	0	519	283	
15	0	0	0	0	522	280	
0	0	0	0	0	512	284	
1	0	0	0	0	497	285	
2	0	0	0	0	523	283	
3	0	0	0	0	517	281	
4	0	0	0	0	483	284	
5	0	0	0	0	538	285	
6	0	0	0	0	509	283	
7	0	0	0	0	515	281	
8	0	0	0	0	499	284	
9	0	0	0	0	520	284	
10	0	0	0	0	542	282	
11	0	0	0	0	489	280	
12	0	0	0	0	460	282	
13	0	0	0	0	464	283	
14	0	0	0	0	572	281	
15	0	0	0	0	574	280	
0	0	0	0	0	542	282	
1	0	0	0	0	497	283	
2	0	0	0	0	512	281	
3	0	0	0	0	521	280	
4	0	0	0	0	494	282	
5	0	0	0	0	538	283	
6	0	0	0	0	481	282	
7	0	0	0	0	485	280	
8	0	0	0	0	477	284	
9	0	0	0	0	503	284	
10	0	0	0	0	491	281	
11	0	0	0	0	468	280	
12	0	0	0	0	487	284	
13	0	0	0	0	472	284	
14	0	0	0	0	492	281	
15	0	0	0	0	436	280	
0	0	0	0	0	448	282	
1	0	0	0	0	430	283	
2	0	0	0	0	462	281	
3	0	0	0	0	449	280	
4	0	0	0	0	493	282	
5	0	0	0	0	494	283	
6	0	0	0	0	522	282	
7	0	0	0	0	552	280	
8	0	0	0	0	558	284	
9	0	0	0	0	554	284	
10	0	0	0	0	580	281	
11	0	0	0	0	585	280	
12	0	0	0	0	575	284	
13	0	0	0	0	599	284	
14	0	0	0	0	527	282	
15	0	0	0	0	490	281	
0	0	0	0	0	519	284	
1	0	0	0	0	543	285	
2	0	0	0	0	563	283	
3	0	0	0	0	505	281	
4	0	0	0	0	518	284	
5	0	0	0	0	539	285	
6	0	0	0	0	520	283	
7	0	0	0	0	483	281	
8	0	0	0	0	485	284	
9	0	0	0	0	513	284	
10	0	0	0	0	497	282	
11	0	0	0	0	518	280	
12	0	0	0	0	477	283	
13	0	0	0	0	519	284	
14	0	0	0	0	481	281	
15	0	0	0	0	499	280	
0	0	0	0	0	477	282	
1	0	0	0	0	487	283	
2	0	0	0	0	475	281	
3	0	0	0	0	519	280	
4	0	0	0	0	523	282	
5	0	0	0	0	486	283	
6	0	0	0	0	491	281	
7	0	0	0	0	521	280	
8	0	0	0	0	496	282	
9	0	0	0	0	478	283	
10	0	0	0	0	473	281	
11	0	0	0	0	494	280	
12	0	0	0	0	472	282	
13	0	0	0	0	515	283	
14	0	0	0	0	499	280	
15	0	0	0	0	488	278	
0	0	0	0	0	475	280	
1	0	0	0	0	524	283	
2	0	0	0	0	492	279	
3	0	0	0	0	516	278	
4	0	0	0	0	506	280	
5	0	0	0	0	518	282	
6	0	0	0	0	502	279	
7	0	0	0	0	483	278	
8	0	0	0	0	485	280	
9	0	0	0	0	532	282	
10	0	0	0	0	476	279	
11	0	0	0	0	522	277	
12	0	0	0	0	489	280	
13	0	0	0	0	468	281	
14	0	0	0	0	403	279	
15	0	0	0	0	504	277	
0	0	0	0	0	577	280	
1	0	0	0	0	520	281	
2	0	0	0	0	518	279	
3	0	0	0	0	499	276	
4	0	0	0	0	484	280	
5	0	0	0	0	520	280	
6	0	0	0	0	487	277	
7	0	0	0	0	551	276	
8	0	0	0	0	452	280	
9	0	0	0	0	515	279	
10	0	0	0	0	467	277	
11	0	0	0	0	482	276	
12	0	0	0	0	489	278	
13	0	0	0	0	495	279	
14	0	0	0	0	485	278	
15	0	0	0	0	498	276	
0	0	0	0	0	484	279	
1	0	0	0	0	430	279	
2	0	0	0	0	431	277	
3	0	0	0	0	466	276	
4	0	0	0	0	427	278	
5	0	0	0	0	484	279	
6	0	0	0	0	479	277	
7	0	0	0	0	530	275	
8	0	0	0	0	559	278	
9	0	0	0	0	566	279	
10	0	0	0	0	543	277	
11	0	0	0	0	588	275	
12	0	0	0	0	574	278	
13	0	0	0	0	557	279	
14	0	0	0	0	554	277	
15	0	0	0	0	542	275	
0	0	0	0	0	522	278	
1	0	0	0	0	568	279	
2	0	0	0	0	537	277	
3	0	0	0	0	549	275	
4	0	0	0	0	526	278	
5	0	0	0	0	519	279	
6	0	0	0	0	520	277	
7	0	0	0	0	495	275	
8	0	0	0	0	523	278	
9	0	0	0	0	531	279	
10	0	0	0	0	480	277	
11	0	0	0	0	482	276	
12	0	0	0	0	546	278	
13	0	0	0	0	531	279	
14	0	0	0	0	510	277	
15	0	0	0	0	502	275	
0	0	0	0	0	489	278	
1	0	0	0	0	508	279	
2	0	0	0	0	482	277	
3	0	0	0	0	507	275	
4	0	0	0	0	500	278	
5	0	0	0	0	525	279	
6	0	0	0	0	495	276	
7	0	0	0	0	506	274	
8	0	0	0	0	509	278	
9	0	0	0	0	507	279	
10	0	0	0	0	475	275	
11	0	0	0	0	484	274	
12	0	0	0	0	491	277	
13	0	0	0	0	532	278	
14	0	0	0	0	471	275	
15	0	0	0	0	533	274	
0	0	0	0	0	483	276	
1	0	0	0	0	521	278	
2	0	0	0	0	483	275	
3	0	0	0	0	516	273	
4	0	0	0	0	484	276	
5	0	0	0	0	507	278	
6	0	0	0	0	476	275	
7	0	0	0	0	471	274	
8	0	0	0	0	467	276	
9	0	0	0	0	506	278	
10	0	0	0	0	508	275	
11	0	0	0	0	528	274	
12	0	0	0	0	519	276	
13	0	0	0	0	516	278	
14	0	0	0	0	504	275	
15	0	0	0	0	492	274	
0	0	0	0	0	501	276	
1	0	0	0	0	432	278	
2	0	0	0	0	387	275	
3	0	0	0	0	497	274	
4	0	0	0	0	611	277	
5	0	0	0	0	539	278	
6	0	0	0	0	528	275	
7	0	0	0	0	531	274	
8	0	0	0	0	475	276	
9	0	0	0	0	479	277	
10	0	0	0	0	509	275	
11	0	0	0	0	486	273	
12	0	0	0	0	492	276	
13	0	0	0	0	511	277	
14	0	0	0	0	490	275	
15	0	0	0	0	497	273	
0	0	0	0	0	429	276	
1	0	0	0	0	510	277	
2	0	0	0	0	463	275	
3	0	0	0	0	502	273	
4	0	0	0	0	458	276	
5	0	0	0	0	478	278	
6	0	0	0	0	452	275	
7	0	0	0	0	423	273	
8	0	0	0	0	416	276	
9	0	0	0	0	473	278	
10	0	0	0	0	480	275	
11	0	0	0	0	511	273	
12	0	0	0	0	510	276	
13	0	0	0	0	550	278	
14	0	0	0	0	576	275	
15	0	0	0	0	553	274	
0	0	0	0	0	570	276	
1	0	0	0	0	576	278	
2	0	0	0	0	564	275	
3	0	0	0	0	589	273	
4	0	0	0	0	556	276	
5	0	0	0	0	541	278	
6	0	0	0	0	530	275	
7	0	0	0	0	546	273	
8	0	0	0	0	508	276	
9	0	0	0	0	536	277	
10	0	0	0	0	545	275	
11	0	0	0	0	550	273	
12	0	0	0	0	525	276	
13	0	0	0	0	527	278	
14	0	0	0	0	519	275	
15	0	0	0	0	520	273	
0	0	0	0	0	499	276	
1	0	0	0	0	522	278	
2	0	0	0	0	507	275	
3	0	0	0	0	505	273	
4	0	0	0	0	541	276	
5	0	0	0	0	487	278	
6	0	0	0	0	528	275	
7	0	0	0	0	543	273	
8	0	0	0	0	517	276	
9	0	0	0	0	502	277	
10	0	0	0	0	514	275	
11	0	0	0	0	518	273	
12	0	0	0	0	494	276	
13	0	0	0	0	500	278	
14	0	0	0	0	479	275	
15	0	0	0	0	534	274	
0	0	0	0	0	517	276	
1	0	0	0	0	510	278	
2	0	0	0	0	493	275	
3	0	0	0	0	512	274	
4	0	0	0	0	501	277	
5	0	0	0	0	502	278	
6	0	0	0	0	493	275	
7	0	0	0	0	511	274	
8	0	0	0	0	514	277	
9	0	0	0	0	530	278	
10	0	0	0	0	489	275	
11	0	0	0	0	525	274	
12	0	0	0	0	491	276	
13	0	0	0	0	497	278	
14	0	0	0	0	504	275	
15	0	0	0	0	536	274	
0	0	0	0	0	529	277	
1	0	0	0	0	495	278	
2	0	0	0	0	488	276	
3	0	0	0	0	527	275	
4	0	0	0	0	528	278	
5	0	0	0	0	490	279	
6	0	0	0	0	479	277	
7	0	0	0	0	393	275	
8	0	0	0	0	516	278	
9	0	0	0	0	564	279	
10	0	0	0	0	566	277	
11	0	0	0	0	476	276	
12	0	0	0	0	500	279	
13	0	0	0	0	559	279	
14	0	0	0	0	497	278	
15	0	0	0	0	499	276	
0	0	0	0	0	489	279	
1	0	0	0	0	500	280	
2	0	0	0	0	503	278	
3	0	0	0	0	495	276	
4	0	0	0	0	486	280	
5	0	0	0	0	499	280	
6	0	0	0	0	479	279	
7	0	0	0	0	473	276	
8	0	0	0	0	475	280	
9	0	0	0	0	497	281	
10	0	0	0	0	447	278	
11	0	0	0	0	455	276	
12	0	0	0	0	454	280	
13	0	0	0	0	457	281	
14	0	0	0	0	449	279	
15	0	0	0	0	474	277	
0	0	0	0	0	502	280	
1	0	0	0	0	551	281	
2	0	0	0	0	586	279	
3	0	0	0	0	564	277	
4	0	0	0	0	557	280	
5	0	0	0	0	605	282	
6	0	0	0	0	577	279	
7	0	0	0	0	549	278	
8	0	0	0	0	567	280	
9	0	0	0	0	561	282	
10	0	0	0	0	538	279	
11	0	0	0	0	559	278	
12	0	0	0	0	570	280	
13	0	0	0	0	544	282	
14	0	0	0	0	532	279	
15	0	0	0	0	523	278	
0	0	0	0	0	508	280	
1	0	0	0	0	518	283	
2	0	0	0	0	501	279	
3	0	0	0	0	505	278	
4	0	0	0	0	568	281	
5	0	0	0	0	540	283	
6	0	0	0	0	509	279	
7	0	0	0	0	521	278	
8	0	0	0	0	515	281	
9	0	0	0	0	508	282	
10	0	0	0	0	471	279	
11	0	0	0	0	508	278	
12	0	0	0	0	516	281	
13	0	0	0	0	501	282	
14	0	0	0	0	487	279	
15	0	0	0	0	518	278	
0	0	0	0	0	518	281	
1	0	0	0	0	519	282	
2	0	0	0	0	504	280	
3	0	0	0	0	521	278	
4	0	0	0	0	503	281	
5	0	0	0	0	481	283	
6	0	0	0	0	469	279	
7	0	0	0	0	515	278	
8	0	0	0	0	476	281	
9	0	0	0	0	510	283	
10	0	0	0	0	512	280	
11	0	0	0	0	503	279	
12	0	0	0	0	493	281	
13	0	0	0	0	504	282	
14	0	0	0	0	492	280	
15	0	0	0	0	522	278	
0	0	0	0	0	489	280	
1	0	0	0	0	515	281	
2	0	0	0	0	514	279	
3	0	0	0	0	539	278	
4	0	0	0	0	505	280	
5	0	0	0	0	498	281	
6	0	0	0	0	493	279	
7	0	0	0	0	471	277	
8	0	0	0	0	418	280	
9	0	0	0	0	530	281	
10	0	0	0	0	593	279	
11	0	0	0	0	559	276	
12	0	0	0	0	508	280	
13	0	0	0	0	495	280	
14	0	0	0	0	458	278	
15	0	0	0	0	495	276	
0	0	0	0	0	524	280	
1	0	0	0	0	489	279	
2	0	0	0	0	498	278	
3	0	0	0	0	495	276	
4	0	0	0	0	498	278	
5	0	0	0	0	475	279	
6	0	0	0	0	496	277	
7	0	0	0	0	496	275	
8	0	0	0	0	464	278	
9	0	0	0	0	501	279	
10	0	0	0	0	472	277	
11	0	0	0	0	459	274	
12	0	0	0	0	455	277	
13	0	0	0	0	443	278	
14	0	0	0	0	460	275	
15	0	0	0	0	444	273	
0	0	0	0	0	459	276	
1	0	0	0	0	497	278	
2	0	0	0	0	554	275	
3	0	0	0	0	543	273	
4	0	0	0	0	603	276	
5	0	0	0	0	587	278	
6	0	0	0	0	566	275	
7	0	0	0	0	574	274	
8	0	0	0	0	581	276	
9	0	0	0	0	546	278	
10	0	0	0	0	576	275	
11	0	0	0	0	525	273	
12	0	0	0	0	551	276	
13	0	0	0	0	550	277	
14	0	0	0	0	526	275	
15	0	0	0	0	559	273	
0	0	0	0	0	536	276	
1	0	0	0	0	521	277	
2	0	0	0	0	538	275	
3	0	0	0	0	533	273	
4	0	0	0	0	497	276	
5	0	0	0	0	505	277	
6	0	0	0	0	521	275	
7	0	0	0	0	507	273	
8	0	0	0	0	494	276	
9	0	0	0	0	531	277	
10	0	0	0	0	514	275	
11	0	0	0	0	528	273	
12	0	0	0	0	531	276	
13	0	0	0	0	498	276	
14	0	0	0	0	518	275	
15	0	0	0	0	515	273	
0	0	0	0	0	529	276	
1	0	0	0	0	485	277	
2	0	0	0	0	514	275	
3	0	0	0	0	527	273	
4	0	0	0	0	515	276	
5	0	0	0	0	522	276	
6	0	0	0	0	521	275	
7	0	0	0	0	495	273	
8	0	0	0	0	493	276	
9	0	0	0	0	478	276	
10	0	0	0	0	509	275	
11	0	0	0	0	533	272	
12	0	0	0	0	482	276	
13	0	0	0	0	509	276	
14	0	0	0	0	502	274	
15	0	0	0	0	486	272	
0	0	0	0	0	490	276	
1	0	0	0	0	535	277	
2	0	0	0	0	482	275	
3	0	0	0	0	540	272	
4	0	0	0	0	478	276	
5	0	0	0	0	519	276	
6	0	0	0	0	511	274	
7	0	0	0	0	494	272	
8	0	0	0	0	492	275	
9	0	0	0	0	513	276	
10	0	0	0	0	444	273	
11	0	0	0	0	401	272	
12	0	0	0	0	526	275	
13	0	0	0	0	597	275	
14	0	0	0	0	528	273	
15	0	0	0	0	518	272	
0	0	0	0	0	499	275	
1	0	0	0	0	498	275	
2	0	0	0	0	503	273	
3	0	0	0	0	481	272	
4	0	0	0	0	509	275	
5	0	0	0	0	515	276	
6	0	0	0	0	488	274	
7	0	0	0	0	512	272	
8	0	0	0	0	480	275	
9	0	0	0	0	494	276	
10	0	0	0	0	481	274	
11	0	0	0	0	493	272	
12	0	0	0	0	467	274	
13	0	0	0	0	469	275	
14	0	0	0	0	480	273	
15	0	0	0	0	447	272	
0	0	0	0	0	457	274	
1	0	0	0	0	494	275	
2	0	0	0	0	447	273	
3	0	0	0	0	468	272	
4	0	0	0	0	498	275	
5	0	0	0	0	546	275	
6	0	0	0	0	575	274	
7	0	0	0	0	595	272	
8	0	0	0	0	561	276	
9	0	0	0	0	575	276	
10	0	0	0	0	571	275	
11	0	0	0	0	574	272	
12	0	0	0	0	524	276	
13	0	0	0	0	576	276	
14	0	0	0	0	518	275	
15	0	0	0	0	566	273	
0	0	0	0	0	511	276	
1	0	0	0	0	546	276	
2	0	0	0	0	538	274	
3	0	0	0	0	535	272	
4	0	0	0	0	513	275	
5	0	0	0	0	531	275	
6	0	0	0	0	516	273	
7	0	0	0	0	526	272	
8	0	0	0	0	507	274	
9	0	0	0	0	505	275	
10	0	0	0	0	517	273	
11	0	0	0	0	516	272	
12	0	0	0	0	507	274	
13	0	0	0	0	494	275	
14	0	0	0	0	512	273	
15	0	0	0	0	529	272	
0	0	0	0	0	498	274	
1	0	0	0	0	519	275	
2	0	0	0	0	503	273	
3	0	0	0	0	518	272	
4	0	0	0	0	512	274	
5	0	0	0	0	521	275	
6	0	0	0	0	513	273	
7	0	0	0	0	483	272	
8	0	0	0	0	469	274	
9	0	0	0	0	512	275	
10	0	0	0	0	479	272	
11	0	0	0	0	535	270	
12	0	0	0	0	533	273	
13	0	0	0	0	512	274	
14	0	0	0	0	513	272	
15	0	0	0	0	506	270	
0	0	0	0	0	496	272	
1	0	0	0	0	494	274	
2	0	0	0	0	487	272	
3	0	0	0	0	503	270	
4	0	0	0	0	517	273	
5	0	0	0	0	519	275	
6	0	0	0	0	487	273	
7	0	0	0	0	505	272	
8	0	0	0	0	554	274	
9	0	0	0	0	502	275	
10	0	0	0	0	501	273	
11	0	0	0	0	442	272	
12	0	0	0	0	360	274	
13	0	0	0	0	553	275	
14	0	0	0	0	580	273	
15	0	0	0	0	539	272	
0	0	0	0	0	520	274	
1	0	0	0	0	518	275	
2	0	0	0	0	508	273	
3	0	0	0	0	497	272	
4	0	0	0	0	510	273	
5	0	0	0	0	497	275	
6	0	0	0	0	524	272	
7	0	0	0	0	498	272	
8	0	0	0	0	491	273	
9	0	0	0	0	507	275	
10	0	0	0	0	492	272	
11	0	0	0	0	481	272	
12	0	0	0	0	449	274	
13	0	0	0	0	484	275	
14	0	0	0	0	490	273	
15	0	0	0	0	456	272	
0	0	0	0	0	475	273	
1	0	0	0	0	463	275	
2	0	0	0	0	461	272	
3	0	0	0	0	453	270	
4	0	0	0	0	480	273	
5	0	0	0	0	516	275	
6	0	0	0	0	507	272	
7	0	0	0	0	575	272	
8	0	0	0	0	568	273	
9	0	0	0	0	583	275	
10	0	0	0	0	596	272	
11	0	0	0	0	573	270	
12	0	0	0	0	561	273	
13	0	0	0	0	575	275	
14	0	0	0	0	532	272	
15	0	0	0	0	564	270	
0	0	0	0	0	525	273	
1	0	0	0	0	537	275	
2	0	0	0	0	543	272	
3	0	0	0	0	528	270	
4	0	0	0	0	519	273	
5	0	0	0	0	534	274	
6	0	0	0	0	530	272	
7	0	0	0	0	516	270	
8	0	0	0	0	521	273	
9	0	0	0	0	515	274	
10	0	0	0	0	528	271	
11	0	0	0	0	488	270	
12	0	0	0	0	520	272	
13	0	0	0	0	518	274	
14	0	0	0	0	469	271	
15	0	0	0	0	509	270	
0	0	0	0	0	518	272	
1	0	0	0	0	543	274	
2	0	0	0	0	503	271	
3	0	0	0	0	499	270	
4	0	0	0	0	505	273	
5	0	0	0	0	484	274	
6	0	0	0	0	509	272	
7	0	0	0	0	537	272	
8	0	0	0	0	496	274	
9	0	0	0	0	506	275	
10	0	0	0	0	513	273	
11	0	0	0	0	537	272	
12	0	0	0	0	499	274	
13	0	0	0	0	510	275	
14	0	0	0	0	503	273	
15	0	0	0	0	487	272	
0	0	0	0	0	486	274	
1	0	0	0	0	500	275	
2	0	0	0	0	516	273	
3	0	0	0	0	535	272	
4	0	0	0	0	493	274	
5	0	0	0	0	543	275	
6	0	0	0	0	475	273	
7	0	0	0	0	527	272	
8	0	0	0	0	531	275	
9	0	0	0	0	518	275	
10	0	0	0	0	471	274	
11	0	0	0	0	433	272	
12	0	0	0	0	477	276	
13	0	0	0	0	589	276	
14	0	0	0	0	561	275	
15	0	0	0	0	531	272	
0	0	0	0	0	501	276	
1	0	0	0	0	503	277	
2	0	0	0	0	496	275	
3	0	0	0	0	499	273	
4	0	0	0	0	491	276	
5	0	0	0	0	501	277	
6	0	0	0	0	504	275	
7	0	0	0	0	504	273	
8	0	0	0	0	484	276	
9	0	0	0	0	502	277	
10	0	0	0	0	473	275	
11	0	0	0	0	468	273	
12	0	0	0	0	483	276	
13	0	0	0	0	452	277	
14	0	0	0	0	463	275	
15	0	0	0	0	437	273	
0	0	0	0	0	476	276	
1	0	0	0	0	463	277	
2	0	0	0	0	458	275	
3	0	0	0	0	448	273	
4	0	0	0	0	496	276	
5	0	0	0	0	536	278	
6	0	0	0	0	567	275	
7	0	0	0	0	561	274	
8	0	0	0	0	592	277	
9	0	0	0	0	594	279	
10	0	0	0	0	573	276	
11	0	0	0	0	560	275	
12	0	0	0	0	547	278	
13	0	0	0	0	568	279	
14	0	0	0	0	563	277	
15	0	0	0	0	540	275	
0	0	0	0	0	545	278	
1	0	0	0	0	562	279	
2	0	0	0	0	534	277	
3	0	0	0	0	528	276	
4	0	0	0	0	489	278	
5	0	0	0	0	541	279	
6	0	0	0	0	536	278	
7	0	0	0	0	483	276	
8	0	0	0	0	500	280	
9	0	0	0	0	545	281	
10	0	0	0	0	537	279	
11	0	0	0	0	532	277	
12	0	0	0	0	484	280	
13	0	0	0	0	507	281	
14	0	0	0	0	486	279	
15	0	0	0	0	503	277	
0	0	0	0	0	525	280	
1	0	0	0	0	528	281	
2	0	0	0	0	521	279	
3	0	0	0	0	511	277	
4	0	0	0	0	485	280	
5	0	0	0	0	507	282	
6	0	0	0	0	470	279	
7	0	0	0	0	493	278	
8	0	0	0	0	528	281	
9	0	0	0	0	511	282	
10	0	0	0	0	505	280	
11	0	0	0	0	503	279	
12	0	0	0	0	499	281	
13	0	0	0	0	527	283	
14	0	0	0	0	509	281	
15	0	0	0	0	496	280	
0	0	0	0	0	484	282	
1	0	0	0	0	519	283	
2	0	0	0	0	510	281	
3	0	0	0	0	499	280	
4	0	0	0	0	527	282	
5	0	0	0	0	519	283	
6	0	0	0	0	502	281	
7	0	0	0	0	415	280	
8	0	0	0	0	482	281	
9	0	0	0	0	588	283	
10	0	0	0	0	583	280	
11	0	0	0	0	490	278	
12	0	0	0	0	487	281	
13	0	0	0	0	505	282	
14	0	0	0	0	491	279	
15	0	0	0	0	473	278	
0	0	0	0	0	485	280	
1	0	0	0	0	517	281	
2	0	0	0	0	526	279	
3	0	0	0	0	499	277	
4	0	0	0	0	455	280	
5	0	0	0	0	490	281	
6	0	0	0	0	471	279	
7	0	0	0	0	449	276	
8	0	0	0	0	492	280	
9	0	0	0	0	488	279	
10	0	0	0	0	451	278	
11	0	0	0	0	416	276	
12	0	0	0	0	438	278	
13	0	0	0	0	451	279	
14	0	0	0	0	480	277	
15	0	0	0	0	464	274	
0	0	0	0	0	490	278	
1	0	0	0	0	523	278	
2	0	0	0	0	553	275	
3	0	0	0	0	605	274	
4	0	0	0	0	563	277	
5	0	0	0	0	539	278	
6	0	0	0	0	568	275	
7	0	0	0	0	573	274	
8	0	0	0	0	556	277	
9	0	0	0	0	557	278	
10	0	0	0	0	560	275	
11	0	0	0	0	536	274	
12	0	0	0	0	542	277	
13	0	0	0	0	546	278	
14	0	0	0	0	556	275	
15	0	0	0	0	492	274	
0	0	0	0	0	536	276	
1	0	0	0	0	494	278	
2	0	0	0	0	529	275	
3	0	0	0	0	502	273	
4	0	0	0	0	520	276	
5	0	0	0	0	555	278	
6	0	0	0	0	508	275	
7	0	0	0	0	547	273	
8	0	0	0	0	499	276	
9	0	0	0	0	494	277	
10	0	0	0	0	498	275	
11	0	0	0	0	521	273	
12	0	0	0	0	503	276	
13	0	0	0	0	531	277	
14	0	0	0	0	539	275	
15	0	0	0	0	526	273	
0	0	0	0	0	495	276	
1	0	0	0	0	524	277	
2	0	0	0	0	504	275	
3	0	0	0	0	488	273	
4	0	0	0	0	505	276	
5	0	0	0	0	482	278	
6	0	0	0	0	495	275	
7	0	0	0	0	487	273	
8	0	0	0	0	521	276	
9	0	0	0	0	504	278	
10	0	0	0	0	495	275	
11	0	0	0	0	579	274	
12	0	0	0	0	441	277	
13	0	0	0	0	529	278	
14	0	0	0	0	532	275	
15	0	0	0	0	511	274	
0	0	0	0	0	484	277	
1	0	0	0	0	487	279	
2	0	0	0	0	441	276	
3	0	0	0	0	423	275	
4	0	0	0	0	430	278	
5	0	0	0	0	508	279	
6	0	0	0	0	633	277	
7	0	0	0	0	522	275	
8	0	0	0	0	537	278	
9	0	0	0	0	534	279	
10	0	0	0	0	478	277	
11	0	0	0	0	494	276	
12	0	0	0	0	468	278	
13	0	0	0	0	483	279	
14	0	0	0	0	507	277	
15	0	0	0	0	486	276	
0	0	0	0	0	513	278	
1	0	0	0	0	536	279	
2	0	0	0	0	492	277	
3	0	0	0	0	496	275	
4	0	0	0	0	468	278	
5	0	0	0	0	524	279	
6	0	0	0	0	441	276	
7	0	0	0	0	462	275	
8	0	0	0	0	455	278	
9	0	0	0	0	436	279	
10	0	0	0	0	472	277	
11	0	0	0	0	451	275	
12	0	0	0	0	546	278	
13	0	0	0	0	517	279	
14	0	0	0	0	536	277	
15	0	0	0	0	586	275	
0	0	0	0	0	558	278	
1	0	0	0	0	554	279	
2	0	0	0	0	542	277	
3	0	0	0	0	580	275	
4	0	0	0	0	545	278	
5	0	0	0	0	545	279	
6	0	0	0	0	569	277	
7	0	0	0	0	552	275	
8	0	0	0	0	527	278	
9	0	0	0	0	551	279	
10	0	0	0	0	547	277	
11	0	0	0	0	529	275	
12	0	0	0	0	520	278	
13	0	0	0	0	536	279	
14	0	0	0	0	525	275	
15	0	0	0	0	514	274	
0	0	0	0	0	543	277	
1	0	0	0	0	495	278	
2	0	0	0	0	481	275	
3	0	0	0	0	505	274	
4	0	0	0	0	559	277	
5	0	0	0	0	508	278	
6	0	0	0	0	507	275	
7	0	0	0	0	551	274	
8	0	0	0	0	519	276	
9	0	0	0	0	501	278	
10	0	0	0	0	511	275	
11	0	0	0	0	501	274	
12	0	0	0	0	468	276	
13	0	0	0	0	502	278	
14	0	0	0	0	512	275	
15	0	0	0	0	529	274	
0	0	0	0	0	509	276	
1	0	0	0	0	523	278	
2	0	0	0	0	497	275	
3	0	0	0	0	490	273	
4	0	0	0	0	524	276	
5	0	0	0	0	491	278	
6	0	0	0	0	489	275	
7	0	0	0	0	531	273	
8	0	0	0	0	504	276	
9	0	0	0	0	499	278	
10	0	0	0	0	504	275	
11	0	0	0	0	511	273	
12	0	0	0	0	527	276	
13	0	0	0	0	504	277	
14	0	0	0	0	497	275	
15	0	0	0	0	451	273	
0	0	0	0	0	380	276	
1	0	0	0	0	547	277	
2	0	0	0	0	576	275	
3	0	0	0	0	540	272	
4	0	0	0	0	515	276	
5	0	0	0	0	487	276	
6	0	0	0	0	503	275	
7	0	0	0	0	531	272	
8	0	0	0	0	488	276	
9	0	0	0	0	494	277	
10	0	0	0	0	518	275	
11	0	0	0	0	474	273	
12	0	0	0	0	479	276	
13	0	0	0	0	501	277	
14	0	0	0	0	478	275	
15	0	0	0	0	474	273	
0	0	0	0	0	485	276	
1	0	0	0	0	514	277	
2	0	0	0	0	466	275	
3	0	0	0	0	504	272	
4	0	0	0	0	448	275	
5	0	0	0	0	429	276	
6	0	0	0	0	463	274	
7	0	0	0	0	472	272	
8	0	0	0	0	457	276	
9	0	0	0	0	524	276	
10	0	0	0	0	544	274	
11	0	0	0	0	574	272	
12	0	0	0	0	611	276	
13	0	0	0	0	585	276	
14	0	0	0	0	554	275	
15	0	0	0	0	591	273	
0	0	0	0	0	535	276	
1	0	0	0	0	536	277	
2	0	0	0	0	567	275	
3	0	0	0	0	545	273	
4	0	0	0	0	534	276	
5	0	0	0	0	531	277	
6	0	0	0	0	527	275	
7	0	0	0	0	535	273	
8	0	0	0	0	541	276	
9	0	0	0	0	528	276	
10	0	0	0	0	489	275	
11	0	0	0	0	527	272	
12	0	0	0	0	504	275	
13	0	0	0	0	510	276	
14	0	0	0	0	525	273	
15	0	0	0	0	480	272	
0	0	0	0	0	521	274	
1	0	0	0	0	516	275	
2	0	0	0	0	524	273	
3	0	0	0	0	533	272	
4	0	0	0	0	509	274	
5	0	0	0	0	514	275	
6	0	0	0	0	502	273	
7	0	0	0	0	505	272	
8	0	0	0	0	499	275	
9	0	0	0	0	502	275	
10	0	0	0	0	504	273	
11	0	0	0	0	527	272	
12	0	0	0	0	503	274	
13	0	0	0	0	551	275	
14	0	0	0	0	531	273	
15	0	0	0	0	490	272	
0	0	0	0	0	477	274	
1	0	0	0	0	483	275	
2	0	0	0	0	491	273	
3	0	0	0	0	518	272	
4	0	0	0	0	498	275	
5	0	0	0	0	521	275	
6	0	0	0	0	546	273	
7	0	0	0	0	490	272	
8	0	0	0	0	513	275	
9	0	0	0	0	528	276	
10	0	0	0	0	474	275	
11	0	0	0	0	490	272	
12	0	0	0	0	454	276	
13	0	0	0	0	442	276	
14	0	0	0	0	559	275	
15	0	0	0	0	555	273	
0	0	0	0	0	527	276	
1	0	0	0	0	504	277	
2	0	0	0	0	499	275	
3	0	0	0	0	497	273	
4	0	0	0	0	499	276	
5	0	0	0	0	512	278	
6	0	0	0	0	478	275	
7	0	0	0	0	476	274	
8	0	0	0	0	483	276	
9	0	0	0	0	493	278	
10	0	0	0	0	514	275	
11	0	0	0	0	506	274	
12	0	0	0	0	489	276	
13	0	0	0	0	491	278	
14	0	0	0	0	454	275	
15	0	0	0	0	440	274	
0	0	0	0	0	450	276	
1	0	0	0	0	452	278	
2	0	0	0	0	459	275	
3	0	0	0	0	476	273	
4	0	0	0	0	461	276	
5	0	0	0	0	513	278	
6	0	0	0	0	535	275	
7	0	0	0	0	548	274	
8	0	0	0	0	556	276	
9	0	0	0	0	546	278	
10	0	0	0	0	573	276	
11	0	0	0	0	587	275	
12	0	0	0	0	556	278	
13	0	0	0	0	541	279	
14	0	0	0	0	560	277	
15	0	0	0	0	528	276	
0	0	0	0	0	536	278	
1	0	0	0	0	563	279	
2	0	0	0	0	550	277	
3	0	0	0	0	517	276	
4	0	0	0	0	522	278	
5	0	0	0	0	502	279	
6	0	0	0	0	534	278	
7	0	0	0	0	497	276	
8	0	0	0	0	488	278	
9	0	0	0	0	560	279	
10	0	0	0	0	522	277	
11	0	0	0	0	548	276	
12	0	0	0	0	498	278	
13	0	0	0	0	520	279	
14	0	0	0	0	489	277	
15	0	0	0	0	484	276	
0	0	0	0	0	495	279	
1	0	0	0	0	523	279	
2	0	0	0	0	528	278	
3	0	0	0	0	499	276	
4	0	0	0	0	506	280	
5	0	0	0	0	502	280	
6	0	0	0	0	496	279	
7	0	0	0	0	517	277	
8	0	0	0	0	471	280	
9	0	0	0	0	531	281	
10	0	0	0	0	491	279	
11	0	0	0	0	497	277	
12	0	0	0	0	475	280	
13	0	0	0	0	473	281	
14	0	0	0	0	531	279	
15	0	0	0	0	512	277	
0	0	0	0	0	544	280	
1	0	0	0	0	510	281	
2	0	0	0	0	528	279	
3	0	0	0	0	513	278	
4	0	0	0	0	480	280	
5	0	0	0	0	483	282	
6	0	0	0	0	492	279	
7	0	0	0	0	467	278	
8	0	0	0	0	440	280	
9	0	0	0	0	515	281	
10	0	0	0	0	616	279	
11	0	0	0	0	568	277	
12	0	0	0	0	501	280	
13	0	0	0	0	500	281	
14	0	0	0	0	498	279	
15	0	0	0	0	492	277	
0	0	0	0	0	492	280	
1	0	0	0	0	502	281	
2	0	0	0	0	504	279	
3	0	0	0	0	494	277	
4	0	0	0	0	499	280	
5	0	0	0	0	504	281	
6	0	0	0	0	473	279	
7	0	0	0	0	473	277	
8	0	0	0	0	487	280	
9	0	0	0	0	455	281	
10	0	0	0	0	457	279	
11	0	0	0	0	446	277	
12	0	0	0	0	468	280	
13	0	0	0	0	445	281	
14	0	0	0	0	469	279	
15	0	0	0	0	445	277	
0	0	0	0	0	454	280	
1	0	0	0	0	532	281	
2	0	0	0	0	540	279	
3	0	0	0	0	541	276	
4	0	0	0	0	548	280	
5	0	0	0	0	609	280	
6	0	0	0	0	567	278	
7	0	0	0	0	554	276	
8	0	0	0	0	580	279	
9	0	0	0	0	558	279	
10	0	0	0	0	549	278	
11	0	0	0	0	564	276	
12	0	0	0	0	558	278	
13	0	0	0	0	520	279	
14	0	0	0	0	530	277	
15	0	0	0	0	536	276	
0	0	0	0	0	526	278	
1	0	0	0	0	518	279	
2	0	0	0	0	537	277	
3	0	0	0	0	542	275	
4	0	0	0	0	524	278	
5	0	0	0	0	505	279	
6	0	0	0	0	529	276	
7	0	0	0	0	482	274	
8	0	0	0	0	514	277	
9	0	0	0	0	532	278	
10	0	0	0	0	508	275	
11	0	0	0	0	516	273	
12	0	0	0	0	519	276	
13	0	0	0	0	521	277	
14	0	0	0	0	527	275	
15	0	0	0	0	508	273	
0	0	0	0	0	498	276	
1	0	0	0	0	506	277	
2	0	0	0	0	510	275	
3	0	0	0	0	493	273	
4	0	0	0	0	531	276	
5	0	0	0	0	520	277	
6	0	0	0	0	477	275	
7	0	0	0	0	499	272	
8	0	0	0	0	508	276	
9	0	0	0	0	483	276	
10	0	0	0	0	523	273	
11	0	0	0	0	504	272	
12	0	0	0	0	515	274	
13	0	0	0	0	505	275	
14	0	0	0	0	515	273	
15	0	0	0	0	518	272	
0	0	0	0	0	515	274	
1	0	0	0	0	508	275	
2	0	0	0	0	455	273	
3	0	0	0	0	422	272	
4	0	0	0	0	456	273	
5	0	0	0	0	577	275	
6	0	0	0	0	570	273	
7	0	0	0	0	550	272	
8	0	0	0	0	514	274	
9	0	0	0	0	493	275	
10	0	0	0	0	506	272	
11	0	0	0	0	495	272	
12	0	0	0	0	491	274	
13	0	0	0	0	499	275	
14	0	0	0	0	469	272	
15	0	0	0	0	512	270	
0	0	0	0	0	500	273	
1	0	0	0	0	478	274	
2	0	0	0	0	472	272	
3	0	0	0	0	505	270	
4	0	0	0	0	454	273	
5	0	0	0	0	456	274	
6	0	0	0	0	481	271	
7	0	0	0	0	467	269	
8	0	0	0	0	472	272	
9	0	0	0	0	458	273	
10	0	0	0	0	477	271	
11	0	0	0	0	472	269	
12	0	0	0	0	498	272	
13	0	0	0	0	518	273	
14	0	0	0	0	562	271	
15	0	0	0	0	590	270	
0	0	0	0	0	553	272	
1	0	0	0	0	615	274	
2	0	0	0	0	563	271	
3	0	0	0	0	549	270	
4	0	0	0	0	555	272	
5	0	0	0	0	561	273	
6	0	0	0	0	556	271	
7	0	0	0	0	542	270	
8	0	0	0	0	544	272	
9	0	0	0	0	542	274	
10	0	0	0	0	527	271	
11	0	0	0	0	501	269	
12	0	0	0	0	557	272	
13	0	0	0	0	520	273	
14	0	0	0	0	510	271	
15	0	0	0	0	522	269	
0	0	0	0	0	521	272	
1	0	0	0	0	532	273	
2	0	0	0	0	497	271	
3	0	0	0	0	522	269	
4	0	0	0	0	495	272	
5	0	0	0	0	514	273	
6	0	0	0	0	505	271	
7	0	0	0	0	535	269	
8	0	0	0	0	496	272	
9	0	0	0	0	522	273	
10	0	0	0	0	521	271	
11	0	0	0	0	511	269	
12	0	0	0	0	483	272	
13	0	0	0	0	530	273	
14	0	0	0	0	503	271	
15	0	0	0	0	513	269	
0	0	0	0	0	524	272	
1	0	0	0	0	504	273	
2	0	0	0	0	487	271	
3	0	0	0	0	522	269	
4	0	0	0	0	474	272	
5	0	0	0	0	517	273	
6	0	0	0	0	476	271	
7	0	0	0	0	491	269	
8	0	0	0	0	499	272	
9	0	0	0	0	518	273	
10	0	0	0	0	519	271	
11	0	0	0	0	508	269	
12	0	0	0	0	521	272	
13	0	0	0	0	501	273	
14	0	0	0	0	520	271	
15	0	0	0	0	505	269	
0	0	0	0	0	496	272	
1	0	0	0	0	465	271	
2	0	0	0	0	409	271	
3	0	0	0	0	474	268	
4	0	0	0	0	597	271	
5	0	0	0	0	561	271	
6	0	0	0	0	537	271	
7	0	0	0	0	475	269	
8	0	0	0	0	511	272	
9	0	0	0	0	508	271	
10	0	0	0	0	511	271	
11	0	0	0	0	523	269	
12	0	0	0	0	513	272	
13	0	0	0	0	492	273	
14	0	0	0	0	482	271	
15	0	0	0	0	505	269	
0	0	0	0	0	471	272	
1	0	0	0	0	491	273	
2	0	0	0	0	425	271	
3	0	0	0	0	504	269	
4	0	0	0	0	465	272	
5	0	0	0	0	470	273	
6	0	0	0	0	455	271	
7	0	0	0	0	432	269	
8	0	0	0	0	451	272	
9	0	0	0	0	489	273	
10	0	0	0	0	503	271	
11	0	0	0	0	497	269	
12	0	0	0	0	509	272	
13	0	0	0	0	558	273	
14	0	0	0	0	603	271	
15	0	0	0	0	583	269	
0	0	0	0	0	583	272	
1	0	0	0	0	578	273	
2	0	0	0	0	517	271	
3	0	0	0	0	568	270	
4	0	0	0	0	539	272	
5	0	0	0	0	534	274	
6	0	0	0	0	573	271	
7	0	0	0	0	537	270	
8	0	0	0	0	534	272	
9	0	0	0	0	556	274	
10	0	0	0	0	521	271	
11	0	0	0	0	502	270	
12	0	0	0	0	495	272	
13	0	0	0	0	513	273	
14	0	0	0	0	515	271	
15	0	0	0	0	529	269	
0	0	0	0	0	496	272	
1	0	0	0	0	532	273	
2	0	0	0	0	557	271	
3	0	0	0	0	511	269	
4	0	0	0	0	491	272	
5	0	0	0	0	537	273	
6	0	0	0	0	491	271	
7	0	0	0	0	499	269	
8	0	0	0	0	509	272	
9	0	0	0	0	502	274	
10	0	0	0	0	542	271	
11	0	0	0	0	520	270	
12	0	0	0	0	508	272	
13	0	0	0	0	517	274	
14	0	0	0	0	519	271	
15	0	0	0	0	482	270	
0	0	0	0	0	513	273	
1	0	0	0	0	495	274	
2	0	0	0	0	493	271	
3	0	0	0	0	516	270	
4	0	0	0	0	519	272	
5	0	0	0	0	510	274	
6	0	0	0	0	503	271	
7	0	0	0	0	490	270	
8	0	0	0	0	500	272	
9	0	0	0	0	520	274	
10	0	0	0	0	519	271	
11	0	0	0	0	496	270	
12	0	0	0	0	524	272	
13	0	0	0	0	516	274	
14	0	0	0	0	499	271	
15	0	0	0	0	526	270	
0	0	0	0	0	506	273	
1	0	0	0	0	494	274	
2	0	0	0	0	478	272	
3	0	0	0	0	404	272	
4	0	0	0	0	496	274	
5	0	0	0	0	587	275	
6	0	0	0	0	551	273	
7	0	0	0	0	514	272	
8	0	0	0	0	483	274	
9	0	0	0	0	528	275	
10	0	0	0	0	499	273	
11	0	0	0	0	507	272	
12	0	0	0	0	468	274	
13	0	0	0	0	519	275	
14	0	0	0	0	484	273	
15	0	0	0	0	481	272	
0	0	0	0	0	456	274	
1	0	0	0	0	519	275	
2	0	0	0	0	481	273	
3	0	0	0	0	469	272	
4	0	0	0	0	469	274	
5	0	0	0	0	440	275	
6	0	0	0	0	475	273	
7	0	0	0	0	473	272	
8	0	0	0	0	446	274	
9	0	0	0	0	469	275	
10	0	0	0	0	451	273	
11	0	0	0	0	464	272	
12	0	0	0	0	513	275	
13	0	0	0	0	501	276	
14	0	0	0	0	560	274	
15	0	0	0	0	599	272	
0	0	0	0	0	566	276	
1	0	0	0	0	568	276	
2	0	0	0	0	542	275	
3	0	0	0	0	553	273	
4	0	0	0	0	592	276	
5	0	0	0	0	541	277	
6	0	0	0	0	563	275	
7	0	0	0	0	546	273	
8	0	0	0	0	545	276	
9	0	0	0	0	531	277	
10	0	0	0	0	515	275	
11	0	0	0	0	539	273	
12	0	0	0	0	561	276	
13	0	0	0	0	507	278	
14	0	0	0	0	487	275	
15	0	0	0	0	558	274	
0	0	0	0	0	492	277	
1	0	0	0	0	524	279	
2	0	0	0	0	500	276	
3	0	0	0	0	509	274	
4	0	0	0	0	507	278	
5	0	0	0	0	544	279	
6	0	0	0	0	505	276	
7	0	0	0	0	518	275	
8	0	0	0	0	514	278	
9	0	0	0	0	500	279	
10	0	0	0	0	500	277	
11	0	0	0	0	488	275	
12	0	0	0	0	475	278	
13	0	0	0	0	515	279	
14	0	0	0	0	516	277	
15	0	0	0	0	529	276	
0	0	0	0	0	520	278	
1	0	0	0	0	511	279	
2	0	0	0	0	547	278	
3	0	0	0	0	477	276	
4	0	0	0	0	480	280	
5	0	0	0	0	532	280	
6	0	0	0	0	485	278	
7	0	0	0	0	521	276	
8	0	0	0	0	505	280	
9	0	0	0	0	525	280	
10	0	0	0	0	503	278	
11	0	0	0	0	490	276	
12	0	0	0	0	501	280	
13	0	0	0	0	485	281	
14	0	0	0	0	519	279	
15	0	0	0	0	497	276	
0	0	0	0	0	511	280	
1	0	0	0	0	519	281	
2	0	0	0	0	521	279	
3	0	0	0	0	511	277	
4	0	0	0	0	508	280	
5	0	0	0	0	455	281	
6	0	0	0	0	452	279	
7	0	0	0	0	417	277	
8	0	0	0	0	547	280	
9	0	0	0	0	600	281	
10	0	0	0	0	537	279	
11	0	0	0	0	505	277	
12	0	0	0	0	500	280	
13	0	0	0	0	495	281	
14	0	0	0	0	508	279	
15	0	0	0	0	492	278	
0	0	0	0	0	502	280	
1	0	0	0	0	479	282	
2	0	0	0	0	511	279	
3	0	0	0	0	483	278	
4	0	0	0	0	504	281	
5	0	0	0	0	508	282	
6	0	0	0	0	445	279	
7	0	0	0	0	508	278	
8	0	0	0	0	482	281	
9	0	0	0	0	460	282	
10	0	0	0	0	451	279	
11	0	0	0	0	449	278	
12	0	0	0	0	459	281	
13	0	0	0	0	439	282	
14	0	0	0	0	454	280	
15	0	0	0	0	454	280	
0	0	0	0	0	549	282	
1	0	0	0	0	558	283	
2	0	0	0	0	585	281	
3	0	0	0	0	568	280	
4	0	0	0	0	568	282	
5	0	0	0	0	569	283	
6	0	0	0	0	551	281	
7	0	0	0	0	590	280	
8	0	0	0	0	586	282	
9	0	0	0	0	551	283	
10	0	0	0	0	545	281	
11	0	0	0	0	522	280	
12	0	0	0	0	524	282	
13	0	0	0	0	529	283	
14	0	0	0	0	545	281	
15	0	0	0	0	542	280	
0	0	0	0	0	515	282	
1	0	0	0	0	516	284	
2	0	0	0	0	500	281	
3	0	0	0	0	495	280	
4	0	0	0	0	502	284	
5	0	0	0	0	522	284	
6	0	0	0	0	507	281	
7	0	0	0	0	543	280	
8	0	0	0	0	494	282	
9	0	0	0	0	506	283	
10	0	0	0	0	522	281	
11	0	0	0	0	551	280	
12	0	0	0	0	500	282	
13	0	0	0	0	497	283	
14	0	0	0	0	509	281	
15	0	0	0	0	510	280	
0	0	0	0	0	498	282	
1	0	0	0	0	532	283	
2	0	0	0	0	533	280	
3	0	0	0	0	488	278	
4	0	0	0	0	505	281	
5	0	0	0	0	509	282	
6	0	0	0	0	484	279	
7	0	0	0	0	536	278	
8	0	0	0	0	491	280	
9	0	0	0	0	494	282	
10	0	0	0	0	515	279	
11	0	0	0	0	505	278	
12	0	0	0	0	476	280	
13	0	0	0	0	515	281	
14	0	0	0	0	513	279	
15	0	0	0	0	510	277	
0	0	0	0	0	463	280	
1	0	0	0	0	511	281	
2	0	0	0	0	509	279	
3	0	0	0	0	508	276	
4	0	0	0	0	521	280	
5	0	0	0	0	505	280	
6	0	0	0	0	489	278	
7	0	0	0	0	471	276	
8	0	0	0	0	426	280	
9	0	0	0	0	547	279	
10	0	0	0	0	598	278	
11	0	0	0	0	509	276	
12	0	0	0	0	473	278	
13	0	0	0	0	511	279	
14	0	0	0	0	500	277	
15	0	0	0	0	507	276	
0	0	0	0	0	511	278	
1	0	0	0	0	465	279	
2	0	0	0	0	467	277	
3	0	0	0	0	509	276	
4	0	0	0	0	509	279	
5	0	0	0	0	509	279	
6	0	0	0	0	486	277	
7	0	0	0	0	504	276	
8	0	0	0	0	474	278	
9	0	0	0	0	472	279	
10	0	0	0	0	468	277	
11	0	0	0	0	479	275	
12	0	0	0	0	430	278	
13	0	0	0	0	445	279	
14	0	0	0	0	460	277	
15	0	0	0	0	486	275	
0	0	0	0	0	479	278	
1	0	0	0	0	534	279	
2	0	0	0	0	535	277	
3	0	0	0	0	568	275	
4	0	0	0	0	583	278	
5	0	0	0	0	588	279	
6	0	0	0	0	578	277	
7	0	0	0	0	571	275	
8	0	0	0	0	570	278	
9	0	0	0	0	560	279	
10	0	0	0	0	569	277	
11	0	0	0	0	536	275	
12	0	0	0	0	516	278	
13	0	0	0	0	558	279	
14	0	0	0	0	551	277	
15	0	0	0	0	521	275	
0	0	0	0	0	522	278	
1	0	0	0	0	532	279	
2	0	0	0	0	526	275	
3	0	0	0	0	508	274	
4	0	0	0	0	501	276	
5	0	0	0	0	522	278	
6	0	0	0	0	507	275	
7	0	0	0	0	534	274	
8	0	0	0	0	494	276	
9	0	0	0	0	506	278	
10	0	0	0	0	531	275	
11	0	0	0	0	510	273	
12	0	0	0	0	504	276	
13	0	0	0	0	492	278	
14	0	0	0	0	536	275	
15	0	0	0	0	505	274	
0	0	0	0	0	503	276	
1	0	0	0	0	496	278	
2	0	0	0	0	483	275	
3	0	0	0	0	547	274	
4	0	0	0	0	483	276	
5	0	0	0	0	518	278	
6	0	0	0	0	515	275	
7	0	0	0	0	509	274	
8	0	0	0	0	514	276	
9	0	0	0	0	494	278	
10	0	0	0	0	509	275	
11	0	0	0	0	526	274	
12	0	0	0	0	475	276	
13	0	0	0	0	511	278	
14	0	0	0	0	499	275	
15	0	0	0	0	492	274	
0	0	0	0	0	512	277	
1	0	0	0	0	529	278	
2	0	0	0	0	495	275	
3	0	0	0	0	513	274	
4	0	0	0	0	523	277	
5	0	0	0	0	513	279	
6	0	0	0	0	506	275	
7	0	0	0	0	502	274	
8	0	0	0	0	488	278	
9	0	0	0	0	449	279	
10	0	0	0	0	422	275	
11	0	0	0	0	493	274	
12	0	0	0	0	593	277	
13	0	0	0	0	569	279	
14	0	0	0	0	519	276	
15	0	0	0	0	483	274	
0	0	0	0	0	515	277	
1	0	0	0	0	498	278	
2	0	0	0	0	500	276	
3	0	0	0	0	473	274	
4	0	0	0	0	490	278	
5	0	0	0	0	496	279	
6	0	0	0	0	507	277	
7	0	0	0	0	526	275	
8	0	0	0	0	482	278	
9	0	0	0	0	475	279	
10	0	0	0	0	458	277	
11	0	0	0	0	494	275	
12	0	0	0	0	486	278	
13	0	0	0	0	462	279	
14	0	0	0	0	432	277	
15	0	0	0	0	467	275	
0	0	0	0	0	456	278	
1	0	0	0	0	448	279	
2	0	0	0	0	488	276	
3	0	0	0	0	520	274	
4	0	0	0	0	537	277	
5	0	0	0	0	571	278	
6	0	0	0	0	558	276	
7	0	0	0	0	576	274	
8	0	0	0	0	566	278	
9	0	0	0	0	576	279	
10	0	0	0	0	542	277	
11	0	0	0	0	543	275	
12	0	0	0	0	551	278	
13	0	0	0	0	567	279	
14	0	0	0	0	545	277	
15	0	0	0	0	531	275	
0	0	0	0	0	512	278	
1	0	0	0	0	572	279	
2	0	0	0	0	499	277	
3	0	0	0	0	545	275	
4	0	0	0	0	530	278	
5	0	0	0	0	538	279	
6	0	0	0	0	531	277	
7	0	0	0	0	511	275	
8	0	0	0	0	484	278	
9	0	0	0	0	515	279	
10	0	0	0	0	512	277	
11	0	0	0	0	525	275	
12	0	0	0	0	506	278	
13	0	0	0	0	513	279	
14	0	0	0	0	510	275	
15	0	0	0	0	506	274	
0	0	0	0	0	523	278	
1	0	0	0	0	463	279	
2	0	0	0	0	532	277	
3	0	0	0	0	512	275	
4	0	0	0	0	508	278	
5	0	0	0	0	504	279	
6	0	0	0	0	513	277	
7	0	0	0	0	489	276	
8	0	0	0	0	519	278	
9	0	0	0	0	502	279	
10	0	0	0	0	524	277	
11	0	0	0	0	508	275	
12	0	0	0	0	486	278	
13	0	0	0	0	538	279	
14	0	0	0	0	504	277	
15	0	0	0	0	533	275	
0	0	0	0	0	495	278	
1	0	0	0	0	500	279	
2	0	0	0	0	485	276	
3	0	0	0	0	502	275	
4	0	0	0	0	499	278	
5	0	0	0	0	507	279	
6	0	0	0	0	500	277	
7	0	0	0	0	504	275	
8	0	0	0	0	515	278	
9	0	0	0	0	514	279	
10	0	0	0	0	499	277	
11	0	0	0	0	480	275	
12	0	0	0	0	474	278	
13	0	0	0	0	415	279	
14	0	0	0	0	535	277	
15	0	0	0	0	585	275	
0	0	0	0	0	540	278	
1	0	0	0	0	516	279	
2	0	0	0	0	492	276	
3	0	0	0	0	522	275	
4	0	0	0	0	497	278	
5	0	0	0	0	495	279	
6	0	0	0	0	496	277	
7	0	0	0	0	488	274	
8	0	0	0	0	495	278	
9	0	0	0	0	523	279	
10	0	0	0	0	457	277	
11	0	0	0	0	499	275	
12	0	0	0	0	474	278	
13	0	0	0	0	446	279	
14	0	0	0	0	467	277	
15	0	0	0	0	483	275	
0	0	0	0	0	428	278	
1	0	0	0	0	476	279	
2	0	0	0	0	467	277	
3	0	0	0	0	480	275	
4	0	0	0	0	448	278	
5	0	0	0	0	504	279	
6	0	0	0	0	502	277	
7	0	0	0	0	551	276	
8	0	0	0	0	552	278	
9	0	0	0	0	585	279	
10	0	0	0	0	583	277	
11	0	0	0	0	554	276	
12	0	0	0	0	562	278	
13	0	0	0	0	570	279	
14	0	0	0	0	535	277	
15	0	0	0	0	559	275	
0	0	0	0	0	562	278	
1	0	0	0	0	551	279	
2	0	0	0	0	555	277	
3	0	0	0	0	523	275	
4	0	0	0	0	524	278	
5	0	0	0	0	530	279	
6	0	0	0	0	535	277	
7	0	0	0	0	518	276	
8	0	0	0	0	502	278	
9	0	0	0	0	516	279	
10	0	0	0	0	511	277	
11	0	0	0	0	508	275	
12	0	0	0	0	536	278	
13	0	0	0	0	528	279	
14	0	0	0	0	500	277	
15	0	0	0	0	508	275	
0	0	0	0	0	508	278	
1	0	0	0	0	493	279	
2	0	0	0	0	488	276	
3	0	0	0	0	523	275	
4	0	0	0	0	540	278	
5	0	0	0	0	475	279	
6	0	0	0	0	500	277	
7	0	0	0	0	524	275	
8	0	0	0	0	514	278	
9	0	0	0	0	510	279	
10	0	0	0	0	499	277	
11	0	0	0	0	513	275	
12	0	0	0	0	519	278	
13	0	0	0	0	524	279	
14	0	0	0	0	527	277	
15	0	0	0	0	479	276	
0	0	0	0	0	491	278	
1	0	0	0	0	504	279	
2	0	0	0	0	508	277	
3	0	0	0	0	516	276	
4	0	0	0	0	523	278	
5	0	0	0	0	500	279	
6	0	0	0	0	488	277	
7	0	0	0	0	501	276	
8	0	0	0	0	494	278	
9	0	0	0	0	522	279	
10	0	0	0	0	519	277	
11	0	0	0	0	478	275	
12	0	0	0	0	507	278	
13	0	0	0	0	522	279	
14	0	0	0	0	504	277	
15	0	0	0	0	522	276	
0	0	0	0	0	505	278	
1	0	0	0	0	410	279	
2	0	0	0	0	472	277	
3	0	0	0	0	559	276	
4	0	0	0	0	576	280	
5	0	0	0	0	496	279	
6	0	0	0	0	522	278	
7	0	0	0	0	504	276	
8	0	0	0	0	512	280	
9	0	0	0	0	482	280	
10	0	0	0	0	522	278	
11	0	0	0	0	503	276	
12	0	0	0	0	496	280	
13	0	0	0	0	487	281	
14	0	0	0	0	484	279	
15	0	0	0	0	488	277	
0	0	0	0	0	466	280	
1	0	0	0	0	513	281	
2	0	0	0	0	474	279	
3	0	0	0	0	473	277	
4	0	0	0	0	454	280	
5	0	0	0	0	455	281	
6	0	0	0	0	473	279	
7	0	0	0	0	432	278	
8	0	0	0	0	480	280	
9	0	0	0	0	471	282	
10	0	0	0	0	491	279	
11	0	0	0	0	524	278	
12	0	0	0	0	516	281	
13	0	0	0	0	565	282	
14	0	0	0	0	583	279	
15	0	0	0	0	593	278	
0	0	0	0	0	570	281	
1	0	0	0	0	589	282	
2	0	0	0	0	553	279	
3	0	0	0	0	547	278	
4	0	0	0	0	571	281	
5	0	0	0	0	531	282	
6	0	0	0	0	546	280	
7	0	0	0	0	535	279	
8	0	0	0	0	524	281	
9	0	0	0	0	519	283	
10	0	0	0	0	536	280	
11	0	0	0	0	511	280	
12	0	0	0	0	514	282	
13	0	0	0	0	518	283	
14	0	0	0	0	503	281	
15	0	0	0	0	502	280	
0	0	0	0	0	518	282	
1	0	0	0	0	515	283	
2	0	0	0	0	535	281	
3	0	0	0	0	526	280	
4	0	0	0	0	523	281	
5	0	0	0	0	508	283	
6	0	0	0	0	518	281	
7	0	0	0	0	495	279	
8	0	0	0	0	520	282	
9	0	0	0	0	507	283	
10	0	0	0	0	534	281	
11	0	0	0	0	496	279	
12	0	0	0	0	508	282	
13	0	0	0	0	535	283	
14	0	0	0	0	526	281	
15	0	0	0	0	487	280	
0	0	0	0	0	519	282	
1	0	0	0	0	486	283	
2	0	0	0	0	491	281	
3	0	0	0	0	501	280	
4	0	0	0	0	488	282	
5	0	0	0	0	533	283	
6	0	0	0	0	523	281	
7	0	0	0	0	512	280	
8	0	0	0	0	481	282	
9	0	0	0	0	504	283	
10	0	0	0	0	498	281	
11	0	0	0	0	503	280	
12	0	0	0	0	491	282	
13	0	0	0	0	536	283	
14	0	0	0	0	516	281	
15	0	0	0	0	507	280	
0	0	0	0	0	513	282	
1	0	0	0	0	512	283	
2	0	0	0	0	489	281	
3	0	0	0	0	491	280	
4	0	0	0	0	456	282	
5	0	0	0	0	432	284	
6	0	0	0	0	544	281	
7	0	0	0	0	587	280	
8	0	0	0	0	538	284	
9	0	0	0	0	523	284	
10	0	0	0	0	483	282	
11	0	0	0	0	500	281	
12	0	0	0	0	515	284	
13	0	0	0	0	468	284	
14	0	0	0	0	500	282	
15	0	0	0	0	494	280	
0	0	0	0	0	513	284	
1	0	0	0	0	484	284	
2	0	0	0	0	497	282	
3	0	0	0	0	472	280	
4	0	0	0	0	487	284	
5	0	0	0	0	456	284	
6	0	0	0	0	488	281	
7	0	0	0	0	458	280	
8	0	0	0	0	465	282	
9	0	0	0	0	466	283	
10	0	0	0	0	452	281	
11	0	0	0	0	460	280	
12	0	0	0	0	454	282	
13	0	0	0	0	461	283	
14	0	0	0	0	517	281	
15	0	0	0	0	548	280	
0	0	0	0	0	557	282	
1	0	0	0	0	594	283	
2	0	0	0	0	576	281	
3	0	0	0	0	594	280	
4	0	0	0	0	595	282	
5	0	0	0	0	552	283	
6	0	0	0	0	549	280	
7	0	0	0	0	548	278	
8	0	0	0	0	530	281	
9	0	0	0	0	558	282	
10	0	0	0	0	535	279	
11	0	0	0	0	525	278	
12	0	0	0	0	537	280	
13	0	0	0	0	529	282	
14	0	0	0	0	538	279	
15	0	0	0	0	541	277	
0	0	0	0	0	491	280	
1	0	0	0	0	548	281	
2	0	0	0	0	511	279	
3	0	0	0	0	526	277	
4	0	0	0	0	500	280	
5	0	0	0	0	496	281	
6	0	0	0	0	528	279	
7	0	0	0	0	508	277	
8	0	0	0	0	527	280	
9	0	0	0	0	524	280	
10	0	0	0	0	513	278	
11	0	0	0	0	512	276	
12	0	0	0	0	519	280	
13	0	0	0	0	497	279	
14	0	0	0	0	504	278	
15	0	0	0	0	521	276	
0	0	0	0	0	506	279	
1	0	0	0	0	521	279	
2	0	0	0	0	485	277	
3	0	0	0	0	515	276	
4	0	0	0	0	519	279	
5	0	0	0	0	521	279	
6	0	0	0	0	505	278	
7	0	0	0	0	504	276	
8	0	0	0	0	508	278	
9	0	0	0	0	520	279	
10	0	0	0	0	503	277	
11	0	0	0	0	491	276	
12	0	0	0	0	481	278	
13	0	0	0	0	508	279	
14	0	0	0	0	530	277	
15	0	0	0	0	521	276	
0	0	0	0	0	498	278	
1	0	0	0	0	499	279	
2	0	0	0	0	531	277	
3	0	0	0	0	524	275	
4	0	0	0	0	490	278	
5	0	0	0	0	492	279	
6	0	0	0	0	498	277	
7	0	0	0	0	411	275	
8	0	0	0	0	472	278	
9	0	0	0	0	582	279	
10	0	0	0	0	591	277	
11	0	0	0	0	525	275	
12	0	0	0	0	487	278	
13	0	0	0	0	518	279	
14	0	0	0	0	528	277	
15	0	0	0	0	503	275	
0	0	0	0	0	499	278	
1	0	0	0	0	508	279	
2	0	0	0	0	492	277	
3	0	0	0	0	504	276	
4	0	0	0	0	456	278	
5	0	0	0	0	487	279	
6	0	0	0	0	511	277	
7	0	0	0	0	481	275	
8	0	0	0	0	474	278	
9	0	0	0	0	471	279	
10	0	0	0	0	458	277	
11	0	0	0	0	459	275	
12	0	0	0	0	444	278	
13	0	0	0	0	430	278	
14	0	0	0	0	471	276	
15	0	0	0	0	505	274	
0	0	0	0	0	506	277	
1	0	0	0	0	559	279	
2	0	0	0	0	559	276	
3	0	0	0	0	567	274	
4	0	0	0	0	563	277	
5	0	0	0	0	558	279	
6	0	0	0	0	568	277	
7	0	0	0	0	587	275	
8	0	0	0	0	572	278	
9	0	0	0	0	544	279	
10	0	0	0	0	528	277	
11	0	0	0	0	548	275	
12	0	0	0	0	546	278	
13	0	0	0	0	543	279	
14	0	0	0	0	523	276	
15	0	0	0	0	543	274	
0	0	0	0	0	497	278	
1	0	0	0	0	545	278	
2	0	0	0	0	527	275	
3	0	0	0	0	497	274	
4	0	0	0	0	547	277	
5	0	0	0	0	504	278	
6	0	0	0	0	537	275	
7	0	0	0	0	511	274	
8	0	0	0	0	494	277	
9	0	0	0	0	521	278	
10	0	0	0	0	524	275	
11	0	0	0	0	520	274	
12	0	0	0	0	527	277	
13	0	0	0	0	478	278	
14	0	0	0	0	507	276	
15	0	0	0	0	541	274	
0	0	0	0	0	532	277	
1	0	0	0	0	494	279	
2	0	0	0	0	529	275	
3	0	0	0	0	506	274	
4	0	0	0	0	516	278	
5	0	0	0	0	528	279	
6	0	0	0	0	509	276	
7	0	0	0	0	496	274	
8	0	0	0	0	500	278	
9	0	0	0	0	504	279	
10	0	0	0	0	512	275	
11	0	0	0	0	497	274	
12	0	0	0	0	526	277	
13	0	0	0	0	497	278	
14	0	0	0	0	506	275	
15	0	0	0	0	493	274	
0	0	0	0	0	482	278	
1	0	0	0	0	524	279	
2	0	0	0	0	486	276	
3	0	0	0	0	519	274	
4	0	0	0	0	523	278	
5	0	0	0	0	531	279	
6	0	0	0	0	495	277	
7	0	0	0	0	484	275	
8	0	0	0	0	443	278	
9	0	0	0	0	404	279	
10	0	0	0	0	525	277	
11	0	0	0	0	581	275	
12	0	0	0	0	509	278	
13	0	0	0	0	513	279	
14	0	0	0	0	511	277	
15	0	0	0	0	496	275	
0	0	0	0	0	496	278	
1	0	0	0	0	498	279	
2	0	0	0	0	491	277	
3	0	0	0	0	506	275	
4	0	0	0	0	515	278	
5	0	0	0	0	478	279	
6	0	0	0	0	484	277	
7	0	0	0	0	472	276	
8	0	0	0	0	493	278	
9	0	0	0	0	471	279	
10	0	0	0	0	478	277	
11	0	0	0	0	446	276	
12	0	0	0	0	448	278	
13	0	0	0	0	469	279	
14	0	0	0	0	451	277	
15	0	0	0	0	453	275	
0	0	0	0	0	476	278	
1	0	0	0	0	472	279	
2	0	0	0	0	552	277	
3	0	0	0	0	534	275	
4	0	0	0	0	551	278	
5	0	0	0	0	583	279	
6	0	0	0	0	566	277	
7	0	0	0	0	577	275	
8	0	0	0	0	603	278	
9	0	0	0	0	551	279	
10	0	0	0	0	540	277	
11	0	0	0	0	578	275	
12	0	0	0	0	562	278	
13	0	0	0	0	515	279	
14	0	0	0	0	565	277	
15	0	0	0	0	513	275	
0	0	0	0	0	531	278	
1	0	0	0	0	535	279	
2	0	0	0	0	538	276	
3	0	0	0	0	506	275	
4	0	0	0	0	494	278	
5	0	0	0	0	504	279	
6	0	0	0	0	518	276	
7	0	0	0	0	516	274	
8	0	0	0	0	543	276	
9	0	0	0	0	508	278	
10	0	0	0	0	554	275	
11	0	0	0	0	475	273	
12	0	0	0	0	503	276	
13	0	0	0	0	510	278	
14	0	0	0	0	521	275	
15	0	0	0	0	468	273	
0	0	0	0	0	511	276	
1	0	0	0	0	489	278	
2	0	0	0	0	519	275	
3	0	0	0	0	499	274	
4	0	0	0	0	531	277	
5	0	0	0	0	499	278	
6	0	0	0	0	517	276	
7	0	0	0	0	532	274	
8	0	0	0	0	518	278	
9	0	0	0	0	490	279	
10	0	0	0	0	504	276	
11	0	0	0	0	478	275	
12	0	0	0	0	528	278	
13	0	0	0	0	489	279	
14	0	0	0	0	562	277	
15	0	0	0	0	490	274	
0	0	0	0	0	496	278	
1	0	0	0	0	502	279	
2	0	0	0	0	486	276	
3	0	0	0	0	485	274	
4	0	0	0	0	509	278	
5	0	0	0	0	509	279	
6	0	0	0	0	525	276	
7	0	0	0	0	524	275	
8	0	0	0	0	535	278	
9	0	0	0	0	545	279	
10	0	0	0	0	503	276	
11	0	0	0	0	522	274	
12	0	0	0	0	424	277	
13	0	0	0	0	408	278	
14	0	0	0	0	523	275	
15	0	0	0	0	593	274	
0	0	0	0	0	542	277	
1	0	0	0	0	508	278	
2	0	0	0	0	521	276	
3	0	0	0	0	502	274	
4	0	0	0	0	494	278	
5	0	0	0	0	492	279	
6	0	0	0	0	505	276	
7	0	0	0	0	496	275	
8	0	0	0	0	482	278	
9	0	0	0	0	468	279	
10	0	0	0	0	503	277	
11	0	0	0	0	489	275	
12	0	0	0	0	517	278	
13	0	0	0	0	473	279	
14	0	0	0	0	478	277	
15	0	0	0	0	448	276	
0	0	0	0	0	455	278	
1	0	0	0	0	426	279	
2	0	0	0	0	437	277	
3	0	0	0	0	477	276	
4	0	0	0	0	470	278	
5	0	0	0	0	478	279	
6	0	0	0	0	525	277	
7	0	0	0	0	531	276	
8	0	0	0	0	568	278	
9	0	0	0	0	575	279	
10	0	0	0	0	598	277	
11	0	0	0	0	577	276	
12	0	0	0	0	558	279	
13	0	0	0	0	563	279	
14	0	0	0	0	514	278	
15	0	0	0	0	544	276	
0	0	0	0	0	550	280	
1	0	0	0	0	588	281	
2	0	0	0	0	554	279	
3	0	0	0	0	515	277	
4	0	0	0	0	528	280	
5	0	0	0	0	515	281	
6	0	0	0	0	512	279	
7	0	0	0	0	503	277	
8	0	0	0	0	528	280	
9	0	0	0	0	515	281	
10	0	0	0	0	504	279	
11	0	0	0	0	526	277	
12	0	0	0	0	530	280	
13	0	0	0	0	509	281	
14	0	0	0	0	524	279	
15	0	0	0	0	512	277	
0	0	0	0	0	484	280	
1	0	0	0	0	518	281	
2	0	0	0	0	499	279	
3	0	0	0	0	515	277	
4	0	0	0	0	498	280	
5	0	0	0	0	527	281	
6	0	0	0	0	495	279	
7	0	0	0	0	502	278	
8	0	0	0	0	531	280	
9	0	0	0	0	527	282	
10	0	0	0	0	483	279	
11	0	0	0	0	488	278	
12	0	0	0	0	500	280	
13	0	0	0	0	512	282	
14	0	0	0	0	508	279	
15	0	0	0	0	511	277	
0	0	0	0	0	509	280	
1	0	0	0	0	510	281	
2	0	0	0	0	492	279	
3	0	0	0	0	461	277	
4	0	0	0	0	507	280	
5	0	0	0	0	504	281	
6	0	0	0	0	503	279	
7	0	0	0	0	564	277	
8	0	0	0	0	494	280	
9	0	0	0	0	503	281	
10	0	0	0	0	561	279	
11	0	0	0	0	489	278	
12	0	0	0	0	515	280	
13	0	0	0	0	491	282	
14	0	0	0	0	449	279	
15	0	0	0	0	483	278	
0	0	0	0	0	599	281	
1	0	0	0	0	553	282	
2	0	0	0	0	508	279	
3	0	0	0	0	517	278	
4	0	0	0	0	522	281	
5	0	0	0	0	479	282	
6	0	0	0	0	476	279	
7	0	0	0	0	502	278	
8	0	0	0	0	491	280	
9	0	0	0	0	515	282	
10	0	0	0	0	443	279	
11	0	0	0	0	505	278	
12	0	0	0	0	480	280	
13	0	0	0	0	505	281	
14	0	0	0	0	471	279	
15	0	0	0	0	461	277	
0	0	0	0	0	467	280	
1	0	0	0	0	446	281	
2	0	0	0	0	452	279	
3	0	0	0	0	447	277	
4	0	0	0	0	440	280	
5	0	0	0	0	417	281	
6	0	0	0	0	487	279	
7	0	0	0	0	515	277	
8	0	0	0	0	551	280	
9	0	0	0	0	565	282	
10	0	0	0	0	550	279	
11	0	0	0	0	557	278	
12	0	0	0	0	568	280	
13	0	0	0	0	587	282	
14	0	0	0	0	579	279	
15	0	0	0	0	570	278	
0	0	0	0	0	556	280	
1	0	0	0	0	568	282	
2	0	0	0	0	568	279	
3	0	0	0	0	526	278	
4	0	0	0	0	537	280	
5	0	0	0	0	525	282	
6	0	0	0	0	548	279	
7	0	0	0	0	515	278	
8	0	0	0	0	518	281	
9	0	0	0	0	505	282	
10	0	0	0	0	520	279	
11	0	0	0	0	527	278	
12	0	0	0	0	534	280	
13	0	0	0	0	540	282	
14	0	0	0	0	520	279	
15	0	0	0	0	491	278	
0	0	0	0	0	507	280	
1	0	0	0	0	513	281	
2	0	0	0	0	511	279	
3	0	0	0	0	493	277	
4	0	0	0	0	534	280	
5	0	0	0	0	499	281	
6	0	0	0	0	518	279	
7	0	0	0	0	480	277	
8	0	0	0	0	513	280	
9	0	0	0	0	504	281	
10	0	0	0	0	511	279	
11	0	0	0	0	470	276	
12	0	0	0	0	558	280	
13	0	0	0	0	491	281	
14	0	0	0	0	504	279	
15	0	0	0	0	505	276	
0	0	0	0	0	505	280	
1	0	0	0	0	514	280	
2	0	0	0	0	518	278	
3	0	0	0	0	485	276	
4	0	0	0	0	518	280	
5	0	0	0	0	470	280	
6	0	0	0	0	503	278	
7	0	0	0	0	526	276	
8	0	0	0	0	505	279	
9	0	0	0	0	513	279	
10	0	0	0	0	516	277	
11	0	0	0	0	507	276	
12	0	0	0	0	490	278	
13	0	0	0	0	519	279	
14	0	0	0	0	478	277	
15	0	0	0	0	442	275	
0	0	0	0	0	483	278	
1	0	0	0	0	539	279	
2	0	0	0	0	606	277	
3	0	0	0	0	499	275	
4	0	0	0	0	511	278	
5	0	0	0	0	517	279	
6	0	0	0	0	510	277	
7	0	0	0	0	519	274	
8	0	0	0	0	473	277	
9	0	0	0	0	504	278	
10	0	0	0	0	475	275	
11	0	0	0	0	515	274	
12	0	0	0	0	489	276	
13	0	0	0	0	488	278	
14	0	0	0	0	486	275	
15	0	0	0	0	475	273	
0	0	0	0	0	462	276	
1	0	0	0	0	489	277	
2	0	0	0	0	469	275	
3	0	0	0	0	446	272	
4	0	0	0	0	416	276	
5	0	0	0	0	468	276	
6	0	0	0	0	458	274	
7	0	0	0	0	458	272	
8	0	0	0	0	520	276	
9	0	0	0	0	527	276	
10	0	0	0	0	575	274	
11	0	0	0	0	553	272	
12	0	0	0	0	605	276	
13	0	0	0	0	574	276	
14	0	0	0	0	616	274	
15	0	0	0	0	545	272	
0	0	0	0	0	560	276	
1	0	0	0	0	536	276	
2	0	0	0	0	556	273	
3	0	0	0	0	564	272	
4	0	0	0	0	534	274	
5	0	0	0	0	519	275	
6	0	0	0	0	566	273	
7	0	0	0	0	499	272	
8	0	0	0	0	524	274	
9	0	0	0	0	531	275	
10	0	0	0	0	556	273	
11	0	0	0	0	502	272	
12	0	0	0	0	520	274	
13	0	0	0	0	513	275	
14	0	0	0	0	512	273	
15	0	0	0	0	497	272	
0	0	0	0	0	508	274	
1	0	0	0	0	505	275	
2	0	0	0	0	533	273	
3	0	0	0	0	497	272	
4	0	0	0	0	508	274	
5	0	0	0	0	505	275	
6	0	0	0	0	504	273	
7	0	0	0	0	533	272	
8	0	0	0	0	513	273	
9	0	0	0	0	511	275	
10	0	0	0	0	492	272	
11	0	0	0	0	514	272	
12	0	0	0	0	515	274	
13	0	0	0	0	529	275	
14	0	0	0	0	535	273	
15	0	0	0	0	525	272	
0	0	0	0	0	497	274	
1	0	0	0	0	516	275	
2	0	0	0	0	488	272	
3	0	0	0	0	495	272	
4	0	0	0	0	492	274	
